Counter,Channel1,Channel2
0,1706,1899
1,1738,1897
2,1818,1817
3,1854,1727
4,1823,1723
5,1817,1718
6,1805,1720
7,1817,1741
8,1773,1805
9,1705,1836
10,1680,1896
11,1703,1899
12,1789,1816
13,1847,1738
14,1837,1727
15,1832,1727
16,1823,1734
17,1820,1738
18,1771,1799
19,1719,1880
20,1705,1916
21,1727,1901
22,1792,1822
23,1837,1752
24,1823,1735
25,1819,1705
26,1815,1696
27,1801,1725
28,1741,1785
29,1691,1869
30,1662,1899
31,1707,1886
32,1770,1822
33,1832,1754
34,1832,1726
35,1836,1721
36,1833,1736
37,1822,1741
38,1789,1785
39,1723,1867
40,1692,1912
41,1705,1880
42,1774,1801
43,1822,1726
44,1832,1711
45,1822,1709
46,1815,1694
47,1802,1711
48,1770,1771
49,1704,1864
50,1679,1897
51,1691,1869
52,1770,1817
53,1823,1753
54,1820,1725
55,1836,1741
56,1819,1723
57,1800,1712
58,1766,1800
59,1705,1848
60,1690,1915
61,1740,1915
62,1831,1850
63,1867,1770
64,1837,1724
65,1816,1726
66,1800,1706
67,1801,1722
68,1759,1752
69,1706,1834
70,1693,1880
71,1707,1884
72,1771,1817
73,1834,1727
74,1838,1721
75,1832,1723
76,1834,1710
77,1820,1744
78,1784,1784
79,1711,1866
80,1706,1913
81,1724,1911
82,1787,1832
83,1837,1756
84,1835,1724
85,1834,1721
86,1817,1707
87,1800,1743
88,1752,1768
89,1686,1849
90,1672,1885
91,1695,1871
92,1774,1786
93,1833,1721
94,1839,1710
95,1835,1706
96,1822,1705
97,1818,1737
98,1783,1770
99,1696,1864
100,1704,1918
101,1726,1932
102,1817,1851
103,1882,1783
104,1880,1739
105,1853,1736
106,1837,1721
107,1817,1727
108,1772,1774
109,1704,1839
110,1678,1912
111,1710,1886
112,1784,1822
113,1834,1742
114,1833,1735
115,1834,1726
116,1822,1709
117,1808,1751
118,1756,1802
119,1709,1896
120,1693,1918
121,1719,1918
122,1790,1846
123,1839,1753
124,1837,1720
125,1837,1721
126,1835,1720
127,1822,1743
128,1785,1789
129,1706,1870
130,1680,1927
131,1706,1910
132,1788,1832
133,1848,1727
134,1853,1711
135,1852,1722
136,1840,1725
137,1833,1743
138,1788,1806
139,1721,1900
140,1708,1943
141,1737,1932
142,1815,1821
143,1848,1735
144,1837,1722
145,1837,1707
146,1836,1706
147,1832,1725
148,1771,1787
149,1719,1870
150,1694,1934
151,1720,1901
152,1804,1805
153,1852,1755
154,1868,1752
155,1865,1727
156,1853,1737
157,1824,1742
158,1775,1790
159,1704,1866
160,1673,1882
161,1708,1870
162,1786,1802
163,1835,1735
164,1837,1703
165,1849,1694
166,1840,1693
167,1822,1719
168,1800,1773
169,1708,1864
170,1692,1930
171,1720,1887
172,1799,1806
173,1854,1708
174,1855,1706
175,1865,1705
176,1851,1707
177,1836,1739
178,1772,1775
179,1709,1880
180,1693,1918
181,1735,1912
182,1804,1783
183,1851,1675
184,1849,1646
185,1835,1672
186,1821,1610
187,1818,1627
188,1784,1675
189,1695,1742
190,1687,1787
191,1725,1742
192,1822,1654
193,1898,1559
194,1884,1549
195,1880,1546
196,1869,1549
197,1838,1546
198,1787,1593
199,1708,1705
200,1702,1741
201,1726,1737
202,1817,1640
203,1868,1558
204,1864,1544
205,1866,1529
206,1850,1546
207,1850,1568
208,1788,1629
209,1719,1720
210,1704,1757
211,1727,1769
212,1803,1661
213,1868,1578
214,1854,1566
215,1868,1547
216,1851,1560
217,1849,1576
218,1803,1627
219,1705,1738
220,1688,1783
221,1722,1784
222,1818,1703
223,1870,1608
224,1870,1599
225,1864,1598
226,1865,1615
227,1854,1623
228,1806,1659
229,1722,1774
230,1722,1832
231,1738,1836
232,1817,1723
233,1865,1628
234,1854,1615
235,1851,1623
236,1850,1628
237,1835,1641
238,1784,1720
239,1707,1803
240,1705,1833
241,1728,1832
242,1818,1738
243,1869,1643
244,1868,1615
245,1867,1614
246,1863,1614
247,1852,1631
248,1806,1690
249,1720,1800
250,1704,1850
251,1736,1833
252,1822,1742
253,1886,1675
254,1886,1642
255,1870,1612
256,1866,1627
257,1850,1614
258,1804,1689
259,1724,1799
260,1719,1832
261,1752,1819
262,1821,1737
263,1885,1646
264,1870,1628
265,1867,1629
266,1853,1631
267,1848,1656
268,1770,1711
269,1710,1806
270,1707,1853
271,1743,1838
272,1823,1756
273,1881,1675
274,1866,1629
275,1853,1631
276,1852,1630
277,1839,1660
278,1807,1710
279,1719,1836
280,1694,1870
281,1741,1855
282,1823,1759
283,1879,1693
284,1880,1645
285,1853,1677
286,1837,1657
287,1823,1674
288,1774,1707
289,1694,1816
290,1691,1879
291,1722,1866
292,1804,1758
293,1867,1678
294,1870,1662
295,1853,1662
296,1848,1680
297,1839,1679
298,1768,1738
299,1691,1832
300,1663,1882
301,1707,1880
302,1806,1787
303,1871,1689
304,1851,1671
305,1851,1660
306,1850,1657
307,1866,1675
308,1815,1742
309,1722,1868
310,1693,1925
311,1722,1926
312,1802,1836
313,1851,1753
314,1851,1742
315,1840,1742
316,1834,1741
317,1833,1773
318,1791,1819
319,1708,1920
320,1689,1978
321,1720,1980
322,1806,1883
323,1868,1771
324,1871,1772
325,1868,1755
326,1856,1770
327,1849,1773
328,1771,1848
329,1706,1931
330,1693,1995
331,1723,1976
332,1817,1870
333,1869,1770
334,1864,1769
335,1851,1755
336,1847,1758
337,1838,1786
338,1787,1834
339,1693,1929
340,1691,1961
341,1726,1967
342,1821,1871
343,1886,1773
344,1870,1742
345,1853,1739
346,1847,1720
347,1835,1740
348,1790,1789
349,1707,1899
350,1688,1950
351,1737,1931
352,1806,1839
353,1868,1755
354,1867,1756
355,1852,1721
356,1837,1736
357,1819,1768
358,1760,1819
359,1694,1902
360,1687,1961
361,1724,1959
362,1805,1853
363,1867,1755
364,1864,1741
365,1849,1735
366,1838,1727
367,1836,1754
368,1790,1805
369,1696,1916
370,1675,1980
371,1721,1944
372,1806,1850
373,1864,1758
374,1867,1740
375,1851,1742
376,1847,1741
377,1822,1755
378,1785,1804
379,1705,1903
380,1689,1948
381,1721,1932
382,1789,1832
383,1853,1738
384,1851,1722
385,1838,1720
386,1832,1726
387,1820,1738
388,1768,1790
389,1695,1896
390,1677,1936
391,1720,1933
392,1801,1849
393,1865,1759
394,1855,1751
395,1847,1728
396,1835,1725
397,1820,1756
398,1784,1802
399,1703,1882
400,1679,1929
401,1711,1918
402,1788,1837
403,1852,1753
404,1855,1724
405,1865,1721
406,1850,1706
407,1832,1737
408,1799,1783
409,1725,1882
410,1709,1918
411,1738,1900
412,1818,1819
413,1868,1753
414,1867,1739
415,1867,1740
416,1863,1736
417,1848,1727
418,1773,1783
419,1706,1833
420,1694,1850
421,1723,1848
422,1816,1742
423,1880,1656
424,1882,1625
425,1870,1626
426,1854,1612
427,1847,1609
428,1800,1673
429,1727,1751
430,1710,1788
431,1740,1768
432,1816,1690
433,1854,1599
434,1868,1592
435,1855,1592
436,1840,1579
437,1837,1596
438,1791,1676
439,1722,1771
440,1707,1821
441,1742,1787
442,1818,1720
443,1871,1646
444,1868,1646
445,1864,1641
446,1836,1647
447,1820,1645
448,1760,1704
449,1706,1783
450,1693,1835
451,1719,1816
452,1802,1721
453,1850,1642
454,1847,1627
455,1836,1630
456,1823,1628
457,1819,1645
458,1773,1708
459,1709,1786
460,1696,1819
461,1726,1817
462,1804,1736
463,1853,1660
464,1848,1644
465,1838,1644
466,1833,1642
467,1818,1672
468,1786,1708
469,1719,1789
470,1703,1837
471,1739,1832
472,1818,1725
473,1853,1659
474,1838,1643
475,1832,1656
476,1820,1659
477,1816,1679
478,1759,1739
479,1710,1818
480,1696,1855
481,1727,1850
482,1815,1767
483,1853,1672
484,1849,1671
485,1835,1671
486,1834,1656
487,1821,1676
488,1784,1722
489,1709,1806
490,1707,1837
491,1738,1833
492,1805,1758
493,1852,1687
494,1854,1661
495,1853,1659
496,1834,1675
497,1818,1677
498,1784,1720
499,1710,1807
500,1694,1852
501,1736,1832
502,1802,1740
503,1853,1689
504,1834,1660
505,1819,1674
506,1804,1660
507,1801,1689
508,1753,1755
509,1704,1832
510,1694,1853
511,1722,1836
512,1784,1753
513,1822,1675
514,1822,1687
515,1818,1688
516,1807,1693
517,1801,1706
518,1770,1770
519,1704,1849
520,1690,1880
521,1720,1852
522,1785,1755
523,1823,1689
524,1833,1680
525,1837,1672
526,1817,1686
527,1804,1692
528,1772,1752
529,1705,1820
530,1693,1867
531,1721,1835
532,1787,1767
533,1837,1703
534,1836,1677
535,1823,1660
536,1817,1664
537,1802,1677
538,1758,1738
539,1708,1814
540,1710,1850
541,1738,1823
542,1800,1743
543,1848,1689
544,1836,1693
545,1836,1689
546,1835,1678
547,1832,1678
548,1784,1726
549,1721,1816
550,1720,1853
551,1754,1833
552,1802,1757
553,1839,1691
554,1836,1688
555,1832,1690
556,1760,1769
557,1720,1833
558,1708,1846
559,1725,1838
560,1789,1771
561,1832,1689
562,1820,1680
563,1824,1691
564,1819,1725
565,1804,1736
566,1756,1783
567,1735,1823
568,1726,1838
569,1752,1824
570,1786,1783
571,1818,1751
572,1806,1725
573,1805,1721
574,1788,1721
575,1786,1742
576,1771,1769
577,1742,1792
578,1738,1816
579,1742,1822
580,1771,1804
581,1804,1759
582,1804,1752
583,1801,1737
584,1816,1738
585,1800,1744
586,1773,1784
587,1754,1804
588,1738,1821
589,1751,1817
590,1773,1775
591,1800,1737
592,1807,1728
593,1820,1736
594,1818,1723
595,1804,1741
596,1774,1770
597,1757,1799
598,1755,1806
599,1758,1822
600,1789,1770
601,1819,1735
602,1834,1719
603,1836,1725
604,1847,1736
605,1819,1740
606,1800,1774
607,1754,1801
608,1741,1822
609,1753,1837
610,1789,1773
611,1820,1724
612,1836,1710
613,1835,1707
614,1823,1706
615,1808,1738
616,1786,1772
617,1753,1835
618,1741,1837
619,1756,1849
620,1816,1800
621,1837,1710
622,1831,1721
623,1823,1707
624,1831,1711
625,1830,1737
626,1785,1801
627,1750,1849
628,1739,1849
629,1755,1832
630,1815,1768
631,1853,1727
632,1851,1719
633,1848,1708
634,1837,1711
635,1832,1739
636,1801,1784
637,1751,1838
638,1740,1848
639,1774,1818
640,1833,1743
641,1863,1721
642,1867,1740
643,1852,1737
644,1848,1752
645,1824,1788
646,1804,1851
647,1772,1928
648,1784,1964
649,1807,1961
650,1847,1901
651,1869,1856
652,1867,1869
653,1870,1885
654,1868,1870
655,1864,1898
656,1822,1967
657,1790,2026
658,1792,2040
659,1820,2010
660,1879,1948
661,1912,1914
662,1929,1902
663,1916,1885
664,1917,1884
665,1918,1887
666,1880,1933
667,1838,1995
668,1851,1993
669,1919,1979
670,1932,1932
671,2061,1855
672,2009,1864
673,1983,1835
674,1962,1835
675,2030,1864
676,1992,1902
677,1997,1948
678,2041,1959
679,2059,1934
680,2185,1866
681,2330,1820
682,2314,1832
683,2424,1838
684,2446,1831
685,2457,1850
686,2524,1903
687,2507,1946
688,2538,1934
689,2607,1944
690,2699,1868
691,2812,1817
692,2937,1808
693,2876,1824
694,2905,1821
695,3052,1837
696,2985,1914
697,2904,2007
698,2920,2025
699,2985,2041
700,3118,1933
701,3069,1928
702,3099,1919
703,3167,1902
704,3182,1920
705,3086,1964
706,3021,1998
707,3020,2064
708,3038,2089
709,3054,2064
710,3071,2008
711,3071,1948
712,3072,1946
713,3102,1952
714,3151,1948
715,3118,1993
716,3065,2011
717,2999,2048
718,3034,2078
719,3050,2061
720,3018,1982
721,3112,1933
722,3117,1918
723,3131,1916
724,3019,1918
725,3002,1935
726,3015,1961
727,2958,2013
728,2874,2029
729,2921,2029
730,2987,1943
731,3021,1883
732,2952,1880
733,2943,1898
734,2956,1899
735,2973,1911
736,2859,1946
737,2826,2012
738,2877,2008
739,2831,2008
740,2864,1930
741,2891,1867
742,2861,1878
743,2892,1879
744,2814,1869
745,2777,1870
746,2810,1911
747,2743,1964
748,2701,1983
749,2749,1965
750,2810,1903
751,2793,1836
752,2781,1847
753,2765,1838
754,2698,1836
755,2715,1849
756,2718,1886
757,2654,1950
758,2601,1964
759,2623,1944
760,2680,1884
761,2703,1864
762,2685,1849
763,2683,1836
764,2652,1819
765,2604,1820
766,2588,1868
767,2553,1944
768,2523,1951
769,2506,1947
770,2589,1880
771,2601,1835
772,2622,1821
773,2584,1800
774,2523,1787
775,2495,1850
776,2480,1879
777,2428,1943
778,2461,1949
779,2487,1918
780,2490,1864
781,2523,1817
782,2524,1802
783,2539,1800
784,2488,1787
785,2461,1802
786,2431,1865
787,2391,1927
788,2380,1929
789,2398,1870
790,2426,1835
791,2425,1802
792,2414,1789
793,2398,1785
794,2398,1760
795,2377,1775
796,2333,1819
797,2282,1887
798,2256,1894
799,2266,1896
800,2286,1833
801,2285,1754
802,2240,1785
803,2216,1768
804,2173,1752
805,2157,1755
806,2088,1801
807,2029,1849
808,1981,1869
809,1947,1863
810,1960,1788
811,1948,1722
812,1911,1736
813,1855,1719
814,1802,1704
815,1737,1736
816,1657,1803
817,1532,1849
818,1498,1848
819,1502,1833
820,1531,1751
821,1533,1704
822,1503,1678
823,1469,1689
824,1434,1693
825,1390,1711
826,1337,1759
827,1258,1820
828,1215,1833
829,1210,1805
830,1227,1758
831,1240,1688
832,1212,1679
833,1176,1690
834,1147,1690
835,1114,1710
836,1069,1768
837,1002,1820
838,973,1834
839,976,1804
840,1016,1736
841,1024,1690
842,1014,1689
843,983,1694
844,971,1672
845,953,1693
846,906,1742
847,854,1789
848,830,1831
849,843,1815
850,877,1739
851,889,1691
852,877,1678
853,876,1680
854,856,1689
855,827,1707
856,795,1774
857,749,1820
858,729,1837
859,748,1823
860,809,1766
861,828,1721
862,824,1704
863,823,1694
864,808,1687
865,796,1706
866,750,1771
867,729,1833
868,716,1854
869,749,1836
870,811,1768
871,843,1719
872,830,1708
873,838,1703
874,839,1695
875,842,1728
876,825,1769
877,782,1833
878,783,1848
879,824,1823
880,878,1754
881,921,1708
882,923,1695
883,925,1704
884,922,1721
885,912,1709
886,891,1771
887,854,1821
888,847,1848
889,886,1817
890,943,1757
891,985,1706
892,989,1705
893,1003,1694
894,1007,1703
895,1003,1719
896,970,1755
897,939,1818
898,936,1824
899,968,1822
900,1023,1759
901,1070,1711
902,1087,1696
903,1099,1692
904,1099,1710
905,1096,1736
906,1068,1784
907,1021,1839
908,1019,1855
909,1065,1849
910,1118,1773
911,1165,1726
912,1177,1706
913,1176,1709
914,1176,1710
915,1174,1722
916,1158,1758
917,1110,1819
918,1102,1835
919,1143,1830
920,1199,1770
921,1243,1707
922,1256,1703
923,1245,1691
924,1257,1695
925,1247,1711
926,1223,1772
927,1192,1838
928,1183,1864
929,1214,1836
930,1273,1770
931,1309,1709
932,1308,1706
933,1309,1707
934,1305,1711
935,1296,1725
936,1273,1768
937,1226,1835
938,1224,1837
939,1260,1832
940,1323,1767
941,1358,1720
942,1358,1711
943,1356,1707
944,1368,1720
945,1356,1736
946,1335,1787
947,1290,1822
948,1286,1837
949,1321,1822
950,1373,1772
951,1417,1723
952,1421,1710
953,1416,1703
954,1419,1720
955,1417,1734
956,1385,1786
957,1340,1835
958,1336,1853
959,1358,1850
960,1421,1787
961,1465,1724
962,1472,1721
963,1480,1723
964,1455,1737
965,1452,1739
966,1418,1789
967,1369,1851
968,1359,1869
969,1388,1830
970,1438,1752
971,1480,1722
972,1481,1720
973,1482,1723
974,1481,1735
975,1469,1758
976,1438,1787
977,1389,1851
978,1383,1871
979,1406,1864
980,1465,1785
981,1512,1727
982,1501,1725
983,1503,1737
984,1516,1736
985,1502,1742
986,1469,1802
987,1422,1848
988,1419,1880
989,1436,1856
990,1499,1788
991,1532,1736
992,1532,1726
993,1528,1740
994,1517,1739
995,1514,1736
996,1485,1787
997,1440,1851
998,1438,1871
999,1466,1852
1000,1527,1783
1001,1550,1739
1002,1559,1721
1003,1563,1726
1004,1547,1724
1005,1533,1738
1006,1513,1791
1007,1464,1864
1008,1455,1885
1009,1485,1854
1010,1546,1790
1011,1582,1741
1012,1577,1725
1013,1576,1736
1014,1576,1740
1015,1566,1753
1016,1518,1804
1017,1483,1849
1018,1471,1879
1019,1511,1867
1020,1566,1790
1021,1609,1740
1022,1611,1738
1023,1608,1735
1024,1599,1737
1025,1596,1755
1026,1565,1808
1027,1519,1867
1028,1517,1888
1029,1548,1867
1030,1595,1800
1031,1640,1725
1032,1641,1722
1033,1641,1725
1034,1626,1719
1035,1615,1740
1036,1592,1790
1037,1547,1864
1038,1548,1867
1039,1575,1850
1040,1629,1774
1041,1661,1727
1042,1674,1710
1043,1662,1722
1044,1663,1709
1045,1648,1752
1046,1612,1802
1047,1582,1850
1048,1579,1870
1049,1592,1864
1050,1644,1774
1051,1677,1727
1052,1689,1727
1053,1692,1742
1054,1690,1753
1055,1688,1755
1056,1656,1808
1057,1599,1870
1058,1610,1884
1059,1630,1883
1060,1694,1805
1061,1742,1743
1062,1743,1740
1063,1766,1726
1064,1743,1740
1065,1719,1759
1066,1692,1798
1067,1647,1863
1068,1676,1884
1069,1768,1869
1070,1801,1801
1071,1817,1737
1072,1832,1721
1073,1904,1724
1074,1849,1744
1075,1821,1754
1076,1872,1816
1077,1850,1850
1078,1837,1863
1079,1881,1864
1080,2042,1790
1081,2202,1737
1082,2175,1727
1083,2207,1727
1084,2313,1741
1085,2377,1756
1086,2474,1790
1087,2410,1884
1088,2392,1912
1089,2591,1854
1090,2750,1804
1091,2782,1739
1092,2828,1736
1093,2908,1756
1094,2906,1752
1095,2960,1755
1096,3008,1818
1097,2942,1884
1098,2940,1885
1099,3016,1887
1100,3101,1822
1101,3160,1789
1102,3209,1770
1103,3162,1774
1104,3162,1786
1105,3199,1804
1106,3179,1884
1107,3069,1929
1108,3086,1947
1109,3160,1933
1110,3240,1865
1111,3304,1816
1112,3231,1790
1113,3241,1817
1114,3120,1790
1115,3149,1832
1116,3176,1867
1117,3167,1928
1118,3111,1964
1119,3088,1931
1120,3147,1880
1121,3194,1836
1122,3165,1816
1123,3193,1831
1124,3259,1818
1125,3163,1854
1126,3084,1886
1127,3038,1932
1128,3069,1945
1129,3085,1918
1130,3069,1853
1131,3100,1816
1132,3101,1818
1133,3133,1806
1134,3099,1801
1135,3100,1814
1136,3005,1865
1137,3001,1903
1138,2892,1917
1139,2971,1914
1140,2990,1831
1141,2986,1772
1142,3007,1768
1143,3067,1754
1144,2985,1768
1145,2968,1755
1146,2937,1815
1147,2878,1869
1148,2846,1918
1149,2857,1884
1150,2919,1805
1151,2925,1770
1152,2935,1770
1153,2967,1755
1154,2968,1754
1155,2910,1759
1156,2830,1822
1157,2794,1850
1158,2765,1868
1159,2777,1882
1160,2875,1818
1161,2906,1739
1162,2872,1737
1163,2872,1720
1164,2924,1722
1165,2888,1740
1166,2827,1821
1167,2734,1856
1168,2720,1869
1169,2778,1833
1170,2859,1755
1171,2878,1723
1172,2905,1692
1173,2921,1688
1174,2871,1687
1175,2823,1706
1176,2862,1727
1177,2862,1816
1178,2845,1806
1179,2794,1817
1180,2862,1741
1181,2923,1676
1182,2952,1659
1183,2955,1673
1184,2959,1659
1185,2967,1689
1186,2924,1705
1187,2878,1772
1188,2876,1775
1189,2911,1754
1190,3002,1691
1191,3038,1625
1192,3066,1639
1193,3015,1659
1194,2985,1628
1195,2973,1629
1196,2990,1706
1197,2951,1742
1198,2921,1758
1199,2952,1771
1200,3064,1704
1201,3101,1613
1202,3053,1599
1203,3039,1581
1204,3082,1592
1205,3022,1614
1206,3040,1661
1207,2967,1738
1208,2953,1750
1209,2989,1727
1210,3054,1630
1211,3116,1580
1212,3099,1566
1213,3135,1577
1214,3087,1560
1215,3033,1578
1216,2989,1645
1217,2958,1679
1218,2984,1694
1219,3008,1676
1220,3021,1599
1221,2983,1578
1222,2970,1560
1223,2974,1563
1224,2955,1533
1225,2923,1545
1226,2904,1600
1227,2860,1656
1228,2829,1661
1229,2860,1675
1230,2858,1639
1231,2847,1578
1232,2840,1583
1233,2839,1580
1234,2808,1579
1235,2748,1583
1236,2670,1625
1237,2584,1692
1238,2526,1723
1239,2539,1723
1240,2556,1670
1241,2521,1599
1242,2444,1599
1243,2375,1639
1244,2283,1643
1245,2218,1661
1246,2109,1705
1247,1995,1770
1248,1901,1790
1249,1866,1785
1250,1852,1736
1251,1824,1693
1252,1769,1689
1253,1679,1689
1254,1598,1704
1255,1528,1737
1256,1418,1806
1257,1323,1867
1258,1241,1879
1259,1198,1872
1260,1177,1807
1261,1158,1758
1262,1070,1757
1263,959,1767
1264,907,1771
1265,858,1786
1266,808,1847
1267,713,1901
1268,663,1912
1269,637,1915
1270,650,1832
1271,637,1775
1272,601,1770
1273,537,1753
1274,495,1784
1275,445,1799
1276,377,1850
1277,286,1915
1278,250,1919
1279,249,1900
1280,268,1822
1281,272,1768
1282,253,1768
1283,233,1767
1284,205,1768
1285,201,1787
1286,175,1848
1287,138,1912
1288,135,1927
1289,154,1913
1290,205,1836
1291,235,1786
1292,224,1784
1293,231,1784
1294,216,1774
1295,206,1801
1296,172,1853
1297,138,1904
1298,144,1931
1299,188,1913
1300,248,1835
1301,285,1787
1302,296,1760
1303,300,1772
1304,303,1759
1305,313,1784
1306,302,1836
1307,252,1897
1308,253,1914
1309,299,1896
1310,363,1817
1311,407,1758
1312,414,1754
1313,413,1751
1314,410,1759
1315,414,1773
1316,396,1816
1317,365,1868
1318,361,1914
1319,410,1883
1320,473,1804
1321,523,1743
1322,538,1722
1323,538,1736
1324,543,1724
1325,551,1754
1326,541,1790
1327,504,1854
1328,505,1881
1329,542,1864
1330,619,1799
1331,669,1740
1332,679,1736
1333,695,1737
1334,703,1741
1335,697,1760
1336,681,1801
1337,638,1867
1338,648,1868
1339,685,1852
1340,759,1787
1341,810,1736
1342,824,1735
1343,828,1728
1344,839,1739
1345,829,1755
1346,794,1805
1347,776,1852
1348,768,1868
1349,809,1851
1350,875,1791
1351,926,1723
1352,936,1724
1353,942,1739
1354,943,1756
1355,942,1753
1356,937,1802
1357,902,1852
1358,908,1865
1359,935,1848
1360,1000,1775
1361,1040,1735
1362,1052,1724
1363,1055,1724
1364,1065,1720
1365,1055,1751
1366,1037,1792
1367,1001,1871
1368,988,1882
1369,1020,1866
1370,1098,1790
1371,1143,1738
1372,1147,1727
1373,1149,1725
1374,1146,1725
1375,1142,1752
1376,1104,1804
1377,1079,1853
1378,1082,1868
1379,1115,1856
1380,1181,1769
1381,1213,1711
1382,1214,1708
1383,1223,1722
1384,1224,1722
1385,1224,1737
1386,1195,1791
1387,1150,1854
1388,1148,1869
1389,1179,1850
1390,1244,1785
1391,1289,1736
1392,1292,1726
1393,1294,1735
1394,1290,1737
1395,1296,1743
1396,1277,1789
1397,1228,1867
1398,1223,1883
1399,1261,1863
1400,1325,1790
1401,1351,1741
1402,1341,1755
1403,1323,1772
1404,1294,1757
1405,1275,1769
1406,1228,1819
1407,1209,1879
1408,1209,1885
1409,1240,1856
1410,1304,1790
1411,1336,1742
1412,1338,1741
1413,1352,1743
1414,1352,1740
1415,1355,1756
1416,1335,1802
1417,1291,1863
1418,1288,1868
1419,1310,1838
1420,1368,1784
1421,1403,1710
1422,1405,1709
1423,1405,1704
1424,1404,1721
1425,1399,1723
1426,1367,1774
1427,1326,1839
1428,1322,1856
1429,1342,1849
1430,1402,1774
1431,1435,1721
1432,1435,1720
1433,1432,1737
1434,1434,1706
1435,1420,1739
1436,1387,1787
1437,1351,1851
1438,1338,1865
1439,1367,1838
1440,1420,1787
1441,1465,1738
1442,1469,1724
1443,1469,1724
1444,1465,1723
1445,1454,1725
1446,1439,1775
1447,1389,1849
1448,1384,1855
1449,1415,1840
1450,1469,1772
1451,1513,1719
1452,1516,1691
1453,1514,1690
1454,1515,1695
1455,1513,1725
1456,1482,1785
1457,1431,1851
1458,1419,1856
1459,1434,1864
1460,1503,1770
1461,1547,1724
1462,1536,1711
1463,1546,1710
1464,1547,1706
1465,1548,1735
1466,1512,1788
1467,1482,1849
1468,1469,1864
1469,1495,1847
1470,1550,1782
1471,1580,1721
1472,1580,1706
1473,1582,1707
1474,1582,1720
1475,1590,1724
1476,1550,1773
1477,1488,1849
1478,1498,1864
1479,1531,1836
1480,1597,1771
1481,1627,1721
1482,1627,1726
1483,1625,1725
1484,1626,1724
1485,1612,1753
1486,1582,1801
1487,1534,1868
1488,1529,1883
1489,1560,1863
1490,1613,1801
1491,1658,1754
1492,1658,1740
1493,1661,1725
1494,1658,1736
1495,1655,1754
1496,1598,1790
1497,1562,1837
1498,1560,1848
1499,1576,1822
1500,1630,1752
1501,1675,1703
1502,1689,1694
1503,1677,1705
1504,1660,1704
1505,1646,1709
1506,1616,1758
1507,1565,1837
1508,1562,1853
1509,1592,1818
1510,1644,1756
1511,1680,1692
1512,1674,1691
1513,1672,1693
1514,1661,1695
1515,1656,1705
1516,1639,1757
1517,1576,1824
1518,1577,1832
1519,1608,1831
1520,1673,1760
1521,1704,1705
1522,1704,1707
1523,1694,1694
1524,1693,1707
1525,1688,1720
1526,1644,1788
1527,1607,1822
1528,1599,1838
1529,1627,1820
1530,1692,1756
1531,1736,1721
1532,1736,1695
1533,1720,1705
1534,1708,1694
1535,1693,1710
1536,1672,1772
1537,1626,1849
1538,1625,1868
1539,1644,1851
1540,1693,1770
1541,1726,1722
1542,1723,1720
1543,1720,1710
1544,1721,1709
1545,1710,1719
1546,1691,1770
1547,1644,1834
1548,1645,1880
1549,1660,1835
1550,1736,1759
1551,1758,1705
1552,1755,1688
1553,1755,1695
1554,1750,1706
1555,1672,1816
1556,1659,1823
1557,1657,1850
1558,1677,1837
1559,1736,1755
1560,1771,1722
1561,1770,1707
1562,1769,1704
1563,1753,1696
1564,1738,1720
1565,1708,1771
1566,1661,1839
1567,1657,1850
1568,1678,1832
1569,1744,1786
1570,1785,1740
1571,1784,1737
1572,1774,1726
1573,1784,1723
1574,1759,1754
1575,1736,1801
1576,1690,1863
1577,1689,1895
1578,1722,1854
1579,1769,1785
1580,1802,1739
1581,1800,1709
1582,1799,1711
1583,1786,1708
1584,1775,1734
1585,1735,1788
1586,1692,1847
1587,1690,1863
1588,1709,1838
1589,1772,1770
1590,1806,1711
1591,1789,1708
1592,1786,1711
1593,1787,1706
1594,1773,1735
1595,1743,1768
1596,1691,1838
1597,1679,1867
1598,1705,1855
1599,1758,1774
1600,1802,1722
1601,1799,1720
1602,1790,1723
1603,1785,1723
1604,1783,1742
1605,1754,1789
1606,1706,1856
1607,1704,1868
1608,1719,1867
1609,1771,1787
1610,1816,1736
1611,1807,1710
1612,1800,1705
1613,1784,1709
1614,1772,1741
1615,1739,1815
1616,1711,1851
1617,1694,1864
1618,1709,1854
1619,1767,1786
1620,1802,1722
1621,1816,1723
1622,1803,1720
1623,1788,1719
1624,1774,1737
1625,1755,1785
1626,1705,1864
1627,1704,1882
1628,1722,1854
1629,1781,1784
1630,1816,1737
1631,1815,1710
1632,1806,1722
1633,1788,1711
1634,1784,1752
1635,1758,1773
1636,1710,1853
1637,1704,1868
1638,1723,1864
1639,1786,1783
1640,1821,1723
1641,1820,1720
1642,1819,1736
1643,1805,1740
1644,1803,1756
1645,1760,1816
1646,1736,1869
1647,1720,1888
1648,1739,1851
1649,1800,1805
1650,1820,1742
1651,1823,1751
1652,1821,1739
1653,1819,1725
1654,1804,1725
1655,1775,1790
1656,1724,1855
1657,1722,1869
1658,1752,1866
1659,1805,1785
1660,1852,1722
1661,1837,1720
1662,1838,1719
1663,1834,1725
1664,1819,1751
1665,1784,1789
1666,1741,1864
1667,1736,1887
1668,1758,1866
1669,1819,1782
1670,1852,1726
1671,1854,1725
1672,1851,1725
1673,1839,1738
1674,1835,1739
1675,1790,1800
1676,1755,1849
1677,1742,1869
1678,1773,1848
1679,1832,1771
1680,1865,1726
1681,1864,1721
1682,1864,1709
1683,1854,1708
1684,1839,1728
1685,1819,1785
1686,1768,1850
1687,1769,1879
1688,1792,1854
1689,1850,1775
1690,1901,1724
1691,1885,1709
1692,1880,1720
1693,1866,1710
1694,1855,1738
1695,1832,1773
1696,1769,1851
1697,1743,1871
1698,1773,1880
1699,1832,1802
1700,1867,1724
1701,1866,1719
1702,1868,1722
1703,1863,1723
1704,1852,1742
1705,1802,1801
1706,1758,1855
1707,1755,1854
1708,1786,1849
1709,1838,1774
1710,1880,1726
1711,1883,1724
1712,1885,1707
1713,1867,1723
1714,1854,1743
1715,1835,1789
1716,1773,1864
1717,1772,1870
1718,1787,1852
1719,1849,1775
1720,1882,1726
1721,1880,1720
1722,1886,1724
1723,1883,1708
1724,1872,1720
1725,1856,1769
1726,1806,1839
1727,1799,1867
1728,1802,1850
1729,1851,1773
1730,1914,1727
1731,1933,1705
1732,1935,1720
1733,1918,1706
1734,1900,1737
1735,1864,1791
1736,1836,1851
1737,1831,1872
1738,1871,1847
1739,1960,1772
1740,1998,1708
1741,1999,1689
1742,2088,1705
1743,2124,1721
1744,2095,1751
1745,2064,1771
1746,2011,1836
1747,2013,1849
1748,2120,1823
1749,2183,1754
1750,2201,1705
1751,2221,1691
1752,2282,1709
1753,2314,1694
1754,2343,1721
1755,2366,1768
1756,2318,1816
1757,2431,1831
1758,2503,1833
1759,2575,1755
1760,2672,1719
1761,2736,1710
1762,2830,1707
1763,2939,1704
1764,2855,1726
1765,2795,1783
1766,2827,1832
1767,2888,1852
1768,2968,1850
1769,3086,1768
1770,3102,1741
1771,3048,1728
1772,3070,1755
1773,3132,1735
1774,3082,1776
1775,3048,1851
1776,3035,1896
1777,3130,1882
1778,3049,1883
1779,3071,1807
1780,3197,1743
1781,3133,1771
1782,3145,1756
1783,3132,1769
1784,3165,1787
1785,3196,1834
1786,2971,1911
1787,3001,1933
1788,3072,1931
1789,3118,1864
1790,3117,1786
1791,3130,1786
1792,3100,1792
1793,3119,1801
1794,3129,1818
1795,3001,1865
1796,2952,1930
1797,2925,1929
1798,3002,1899
1799,3035,1822
1800,3088,1774
1801,3066,1776
1802,2972,1754
1803,2985,1759
1804,3068,1784
1805,2984,1853
1806,2844,1918
1807,2872,1935
1808,2887,1932
1809,3022,1870
1810,3016,1805
1811,2845,1790
1812,2952,1808
1813,2892,1791
1814,2895,1817
1815,2845,1864
1816,2715,1931
1817,2743,1964
1818,2809,1932
1819,2825,1866
1820,2812,1803
1821,2798,1804
1822,2860,1775
1823,2876,1760
1824,2734,1775
1825,2682,1837
1826,2679,1917
1827,2654,1915
1828,2681,1912
1829,2812,1823
1830,2731,1771
1831,2695,1758
1832,2745,1768
1833,2777,1773
1834,2666,1791
1835,2665,1853
1836,2523,1916
1837,2521,1935
1838,2583,1914
1839,2634,1836
1840,2666,1787
1841,2682,1751
1842,2591,1753
1843,2573,1752
1844,2606,1784
1845,2540,1822
1846,2489,1880
1847,2476,1916
1848,2494,1902
1849,2521,1837
1850,2586,1775
1851,2632,1772
1852,2519,1799
1853,2511,1807
1854,2463,1832
1855,2409,1863
1856,2366,1917
1857,2359,1936
1858,2350,1914
1859,2411,1848
1860,2459,1784
1861,2457,1767
1862,2446,1767
1863,2425,1770
1864,2392,1772
1865,2350,1822
1866,2283,1900
1867,2254,1912
1868,2254,1871
1869,2296,1800
1870,2295,1753
1871,2270,1772
1872,2236,1771
1873,2205,1773
1874,2167,1788
1875,2064,1851
1876,1976,1911
1877,1932,1919
1878,1933,1898
1879,1959,1823
1880,1946,1767
1881,1902,1754
1882,1848,1769
1883,1783,1769
1884,1708,1785
1885,1596,1836
1886,1513,1864
1887,1479,1897
1888,1480,1872
1889,1498,1790
1890,1501,1724
1891,1470,1707
1892,1436,1709
1893,1388,1706
1894,1338,1711
1895,1277,1756
1896,1197,1822
1897,1166,1835
1898,1166,1823
1899,1196,1742
1900,1210,1678
1901,1182,1675
1902,1163,1675
1903,1136,1690
1904,1116,1694
1905,1066,1740
1906,984,1806
1907,955,1835
1908,969,1821
1909,1014,1753
1910,1049,1692
1911,1037,1692
1912,1016,1688
1913,1001,1675
1914,973,1678
1915,922,1756
1916,872,1808
1917,858,1834
1918,873,1823
1919,905,1758
1920,936,1704
1921,923,1694
1922,909,1704
1923,905,1705
1924,880,1711
1925,847,1772
1926,798,1835
1927,792,1838
1928,808,1832
1929,862,1755
1930,891,1724
1931,891,1711
1932,889,1708
1933,876,1708
1934,873,1727
1935,829,1785
1936,791,1849
1937,782,1868
1938,814,1840
1939,876,1776
1940,909,1726
1941,924,1722
1942,924,1722
1943,927,1711
1944,922,1739
1945,888,1786
1946,859,1833
1947,860,1851
1948,889,1848
1949,952,1775
1950,976,1706
1951,990,1688
1952,999,1702
1953,999,1695
1954,986,1719
1955,969,1787
1956,936,1849
1957,928,1867
1958,970,1848
1959,1017,1784
1960,1065,1709
1961,1064,1704
1962,1070,1708
1963,1081,1712
1964,1083,1735
1965,1069,1784
1966,1033,1840
1967,1020,1854
1968,1053,1833
1969,1116,1768
1970,1160,1719
1971,1164,1724
1972,1174,1710
1973,1175,1719
1974,1167,1741
1975,1134,1799
1976,1100,1854
1977,1097,1855
1978,1126,1839
1979,1181,1768
1980,1214,1709
1981,1224,1707
1982,1225,1719
1983,1225,1726
1984,1213,1742
1985,1196,1799
1986,1150,1851
1987,1160,1881
1988,1194,1862
1989,1258,1790
1990,1290,1744
1991,1293,1738
1992,1279,1721
1993,1279,1724
1994,1278,1741
1995,1257,1791
1996,1212,1855
1997,1208,1865
1998,1245,1855
1999,1309,1800
2000,1356,1736
2001,1358,1724
2002,1371,1722
2003,1357,1722
2004,1356,1742
2005,1323,1804
2006,1287,1856
2007,1272,1870
2008,1303,1854
2009,1358,1772
2010,1403,1727
2011,1406,1724
2012,1405,1736
2013,1400,1740
2014,1386,1753
2015,1356,1792
2016,1307,1851
2017,1308,1881
2018,1341,1854
2019,1404,1774
2020,1448,1735
2021,1448,1724
2022,1437,1721
2023,1435,1735
2024,1432,1758
2025,1406,1805
2026,1370,1880
2027,1367,1887
2028,1386,1866
2029,1437,1789
2030,1484,1739
2031,1495,1725
2032,1486,1727
2033,1484,1736
2034,1469,1752
2035,1435,1805
2036,1406,1870
2037,1404,1881
2038,1432,1865
2039,1498,1792
2040,1519,1736
2041,1517,1726
2042,1517,1722
2043,1519,1721
2044,1516,1739
2045,1486,1790
2046,1432,1853
2047,1421,1872
2048,1454,1863
2049,1519,1785
2050,1560,1712
2051,1564,1709
2052,1564,1710
2053,1560,1706
2054,1549,1724
2055,1516,1771
2056,1468,1837
2057,1464,1852
2058,1499,1839
2059,1551,1775
2060,1595,1710
2061,1591,1711
2062,1591,1720
2063,1581,1725
2064,1577,1752
2065,1531,1818
2066,1496,1870
2067,1494,1882
2068,1520,1881
2069,1581,1807
2070,1624,1743
2071,1626,1738
2072,1624,1738
2073,1611,1727
2074,1600,1736
2075,1579,1786
2076,1530,1851
2077,1529,1865
2078,1564,1853
2079,1614,1785
2080,1648,1719
2081,1647,1720
2082,1656,1722
2083,1655,1720
2084,1646,1753
2085,1611,1791
2086,1577,1855
2087,1562,1870
2088,1582,1851
2089,1641,1784
2090,1689,1736
2091,1688,1723
2092,1689,1723
2093,1677,1724
2094,1671,1756
2095,1624,1802
2096,1580,1850
2097,1578,1869
2098,1598,1855
2099,1659,1785
2100,1702,1739
2101,1706,1735
2102,1695,1738
2103,1705,1736
2104,1704,1752
2105,1658,1802
2106,1609,1865
2107,1611,1886
2108,1631,1869
2109,1691,1803
2110,1736,1738
2111,1736,1726
2112,1724,1736
2113,1720,1740
2114,1708,1756
2115,1722,1792
2116,1675,1863
2117,1704,1888
2118,1691,1880
2119,1741,1773
2120,1854,1709
2121,1868,1726
2122,1849,1719
2123,1916,1718
2124,1868,1739
2125,1788,1788
2126,1817,1819
2127,1962,1833
2128,2010,1832
2129,2014,1742
2130,2157,1689
2131,2218,1689
2132,2263,1694
2133,2298,1688
2134,2297,1727
2135,2412,1770
2136,2384,1824
2137,2399,1850
2138,2489,1831
2139,2600,1756
2140,2727,1696
2141,2776,1708
2142,2840,1696
2143,2874,1693
2144,2872,1725
2145,2888,1753
2146,2847,1822
2147,2954,1848
2148,2989,1831
2149,3021,1789
2150,3005,1719
2151,3113,1695
2152,3072,1709
2153,3048,1720
2154,3118,1725
2155,3072,1790
2156,2942,1863
2157,2958,1883
2158,3036,1864
2159,3144,1791
2160,3160,1743
2161,3162,1743
2162,3130,1721
2163,3032,1724
2164,3001,1756
2165,3020,1791
2166,3000,1852
2167,2974,1878
2168,2937,1850
2169,3008,1785
2170,3047,1736
2171,3047,1710
2172,3055,1694
2173,3049,1723
2174,2969,1721
2175,2969,1770
2176,2905,1818
2177,2969,1852
2178,2824,1847
2179,2934,1768
2180,3039,1689
2181,3004,1690
2182,2936,1719
2183,2955,1703
2184,2887,1737
2185,2824,1785
2186,2762,1832
2187,2763,1868
2188,2874,1854
2189,2894,1759
2190,2798,1707
2191,2857,1706
2192,2857,1711
2193,2811,1725
2194,2794,1725
2195,2763,1767
2196,2711,1819
2197,2648,1848
2198,2703,1822
2199,2764,1758
2200,2799,1693
2201,2823,1695
2202,2800,1705
2203,2747,1695
2204,2735,1707
2205,2617,1756
2206,2602,1837
2207,2617,1836
2208,2624,1803
2209,2748,1737
2210,2664,1690
2211,2656,1695
2212,2665,1695
2213,2633,1709
2214,2616,1741
2215,2621,1786
2216,2490,1864
2217,2458,1896
2218,2538,1865
2219,2557,1803
2220,2623,1738
2221,2598,1726
2222,2552,1741
2223,2588,1740
2224,2552,1759
2225,2537,1801
2226,2446,1880
2227,2458,1898
2228,2447,1884
2229,2494,1815
2230,2543,1756
2231,2489,1753
2232,2488,1743
2233,2477,1752
2234,2522,1771
2235,2430,1817
2236,2377,1865
2237,2328,1896
2238,2361,1880
2239,2442,1816
2240,2490,1737
2241,2362,1739
2242,2360,1743
2243,2378,1758
2244,2381,1786
2245,2361,1833
2246,2368,1882
2247,2299,1896
2248,2318,1855
2249,2349,1834
2250,2414,1773
2251,2330,1774
2252,2328,1786
2253,2393,1757
2254,2415,1785
2255,2267,1832
2256,2238,1903
2257,2217,1918
2258,2201,1896
2259,2344,1819
2260,2331,1757
2261,2314,1772
2262,2299,1785
2263,2319,1785
2264,2251,1784
2265,2203,1834
2266,2191,1912
2267,2222,1918
2268,2267,1869
2269,2221,1816
2270,2304,1788
2271,2329,1759
2272,2270,1758
2273,2303,1759
2274,2264,1759
2275,2191,1822
2276,2174,1882
2277,2155,1897
2278,2170,1854
2279,2222,1776
2280,2267,1740
2281,2216,1753
2282,2200,1741
2283,2216,1752
2284,2264,1774
2285,2189,1830
2286,2189,1870
2287,2112,1904
2288,2104,1898
2289,2166,1820
2290,2191,1755
2291,2239,1739
2292,2280,1711
2293,2238,1724
2294,2253,1759
2295,2141,1836
2296,2088,1903
2297,2090,1902
2298,2087,1885
2299,2156,1819
2300,2204,1769
2301,2199,1758
2302,2204,1753
2303,2151,1742
2304,2152,1772
2305,2112,1832
2306,2103,1881
2307,2077,1897
2308,2136,1865
2309,2110,1788
2310,2105,1725
2311,2120,1712
2312,2143,1725
2313,2200,1725
2314,2123,1758
2315,2093,1801
2316,2029,1878
2317,2008,1871
2318,2011,1837
2319,2074,1774
2320,2136,1725
2321,2122,1736
2322,2200,1740
2323,2125,1759
2324,2090,1752
2325,2045,1800
2326,1993,1851
2327,2023,1865
2328,1992,1849
2329,2077,1787
2330,2119,1742
2331,2109,1754
2332,2079,1756
2333,2079,1752
2334,2076,1768
2335,2013,1817
2336,1976,1866
2337,1948,1870
2338,1983,1853
2339,2039,1775
2340,2057,1738
2341,2043,1725
2342,2027,1726
2343,1999,1720
2344,1976,1740
2345,1945,1804
2346,1868,1869
2347,1820,1880
2348,1768,1865
2349,1786,1789
2350,1791,1737
2351,1769,1726
2352,1742,1720
2353,1687,1735
2354,1582,1757
2355,1436,1822
2356,1369,1895
2357,1370,1896
2358,1384,1882
2359,1402,1808
2360,1371,1742
2361,1308,1739
2362,1242,1738
2363,1184,1742
2364,1119,1754
2365,1035,1802
2366,974,1865
2367,935,1897
2368,908,1865
2369,922,1801
2370,918,1741
2371,879,1728
2372,844,1726
2373,808,1735
2374,784,1768
2375,719,1806
2376,648,1865
2377,604,1870
2378,607,1852
2379,651,1773
2380,670,1723
2381,637,1725
2382,617,1738
2383,602,1735
2384,583,1751
2385,536,1800
2386,462,1864
2387,457,1869
2388,473,1862
2389,510,1792
2390,538,1738
2391,525,1742
2392,512,1735
2393,506,1726
2394,489,1756
2395,440,1820
2396,408,1866
2397,394,1879
2398,412,1869
2399,460,1804
2400,493,1740
2401,504,1735
2402,496,1710
2403,503,1719
2404,492,1741
2405,463,1788
2406,411,1866
2407,412,1884
2408,444,1866
2409,504,1788
2410,556,1738
2411,559,1726
2412,560,1725
2413,575,1726
2414,583,1752
2415,554,1791
2416,507,1868
2417,510,1884
2418,553,1871
2419,622,1800
2420,672,1739
2421,684,1727
2422,685,1725
2423,696,1735
2424,699,1753
2425,666,1816
2426,648,1866
2427,649,1880
2428,684,1868
2429,760,1806
2430,809,1744
2431,815,1753
2432,825,1754
2433,828,1754
2434,825,1784
2435,806,1832
2436,763,1896
2437,766,1917
2438,807,1886
2439,876,1806
2440,925,1756
2441,936,1753
2442,944,1741
2443,943,1740
2444,942,1770
2445,919,1817
2446,876,1870
2447,878,1885
2448,921,1880
2449,984,1804
2450,1024,1737
2451,1036,1735
2452,1039,1726
2453,1050,1724
2454,1040,1753
2455,1006,1803
2456,985,1854
2457,975,1879
2458,1017,1864
2459,1083,1790
2460,1130,1736
2461,1143,1722
2462,1136,1738
2463,1133,1726
2464,1131,1755
2465,1112,1814
2466,1079,1881
2467,1066,1898
2468,1104,1869
2469,1166,1791
2470,1213,1727
2471,1226,1735
2472,1229,1725
2473,1229,1724
2474,1214,1740
2475,1208,1790
2476,1152,1856
2477,1164,1866
2478,1206,1854
2479,1245,1759
2480,1271,1712
2481,1241,1706
2482,1211,1692
2483,1224,1703
2484,1214,1724
2485,1148,1767
2486,1097,1804
2487,1086,1816
2488,1112,1800
2489,1162,1740
2490,1192,1708
2491,1181,1693
2492,1184,1676
2493,1192,1690
2494,1194,1721
2495,1164,1759
2496,1128,1831
2497,1129,1854
2498,1166,1821
2499,1243,1740
2500,1296,1695
2501,1304,1692
2502,1294,1703
2503,1289,1703
2504,1289,1712
2505,1261,1758
2506,1214,1834
2507,1215,1856
2508,1248,1838
2509,1308,1756
2510,1358,1689
2511,1367,1679
2512,1359,1676
2513,1358,1693
2514,1357,1707
2515,1325,1756
2516,1287,1819
2517,1280,1836
2518,1310,1835
2519,1374,1756
2520,1423,1705
2521,1423,1710
2522,1434,1709
2523,1434,1719
2524,1432,1739
2525,1392,1786
2526,1356,1851
2527,1353,1867
2528,1374,1834
2529,1446,1767
2530,1484,1707
2531,1494,1695
2532,1497,1693
2533,1498,1705
2534,1488,1722
2535,1464,1771
2536,1421,1848
2537,1415,1853
2538,1439,1838
2539,1501,1767
2540,1548,1708
2541,1550,1709
2542,1549,1695
2543,1534,1691
2544,1535,1711
2545,1494,1785
2546,1452,1822
2547,1454,1856
2548,1482,1822
2549,1535,1769
2550,1594,1719
2551,1593,1704
2552,1600,1704
2553,1598,1703
2554,1501,1851
2555,1503,1856
2556,1531,1838
2557,1594,1775
2558,1629,1710
2559,1629,1708
2560,1627,1708
2561,1627,1712
2562,1614,1737
2563,1592,1786
2564,1534,1853
2565,1528,1867
2566,1560,1852
2567,1612,1775
2568,1657,1711
2569,1645,1707
2570,1643,1719
2571,1643,1710
2572,1630,1722
2573,1594,1783
2574,1560,1848
2575,1548,1868
2576,1579,1848
2577,1643,1785
2578,1674,1737
2579,1676,1709
2580,1672,1707
2581,1670,1709
2582,1661,1725
2583,1628,1784
2584,1583,1849
2585,1582,1870
2586,1612,1853
2587,1662,1773
2588,1706,1722
2589,1712,1726
2590,1725,1721
2591,1723,1724
2592,1704,1741
2593,1657,1791
2594,1609,1867
2595,1630,1881
2596,1673,1856
2597,1723,1786
2598,1752,1723
2599,1752,1726
2600,1758,1726
2601,1785,1711
2602,1806,1742
2603,1740,1801
2604,1677,1869
2605,1658,1882
2606,1720,1848
2607,1817,1775
2608,1818,1737
2609,1864,1737
2610,1930,1706
2611,1960,1708
2612,1883,1720
2613,1851,1770
2614,1852,1835
2615,1992,1865
2616,2027,1838
2617,2096,1772
2618,2204,1710
2619,2221,1710
2620,2298,1708
2621,2281,1691
2622,2328,1709
2623,2479,1759
2624,2463,1849
2625,2478,1853
2626,2520,1832
2627,2605,1754
2628,2826,1708
2629,2956,1704
2630,2893,1690
2631,2926,1672
2632,3063,1677
2633,3006,1787
2634,2972,1833
2635,2969,1868
2636,3015,1849
2637,3083,1760
2638,3194,1711
2639,3258,1705
2640,3180,1711
2641,3178,1720
2642,3311,1710
2643,3167,1773
2644,3051,1851
2645,3066,1885
2646,3144,1866
2647,3246,1815
2648,3370,1752
2649,3248,1736
2650,3229,1737
2651,3194,1706
2652,3214,1721
2653,3159,1787
2654,3072,1849
2655,3129,1895
2656,3112,1880
2657,3262,1804
2658,3175,1728
2659,3198,1726
2660,3149,1719
2661,3168,1725
2662,3177,1751
2663,3191,1792
2664,3112,1848
2665,3006,1867
2666,3083,1837
2667,3112,1770
2668,3194,1708
2669,3100,1705
2670,3072,1693
2671,3100,1690
2672,3088,1708
2673,3018,1755
2674,2939,1847
2675,2909,1854
2676,2938,1848
2677,3017,1773
2678,3111,1725
2679,3102,1738
2680,2975,1720
2681,3039,1738
2682,2939,1754
2683,2861,1801
2684,2861,1839
2685,2792,1865
2686,2825,1855
2687,2924,1783
2688,2936,1705
2689,2938,1695
2690,2919,1690
2691,2871,1719
2692,2846,1753
2693,2840,1804
2694,2763,1867
2695,2763,1899
2696,2763,1888
2697,2889,1787
2698,2844,1734
2699,2793,1712
2700,2809,1723
2701,2796,1725
2702,2857,1754
2703,2762,1785
2704,2634,1851
2705,2619,1879
2706,2664,1864
2707,2778,1770
2708,2761,1737
2709,2794,1724
2710,2730,1710
2711,2669,1727
2712,2687,1737
2713,2680,1773
2714,2616,1866
2715,2602,1881
2716,2618,1881
2717,2713,1817
2718,2633,1739
2719,2605,1755
2720,2589,1754
2721,2623,1742
2722,2616,1756
2723,2554,1818
2724,2571,1879
2725,2508,1900
2726,2441,1868
2727,2519,1803
2728,2583,1770
2729,2539,1769
2730,2551,1769
2731,2584,1768
2732,2524,1790
2733,2471,1847
2734,2409,1896
2735,2399,1912
2736,2424,1886
2737,2462,1816
2738,2504,1752
2739,2472,1741
2740,2443,1754
2741,2425,1768
2742,2391,1773
2743,2334,1833
2744,2281,1899
2745,2248,1917
2746,2236,1917
2747,2253,1839
2748,2269,1804
2749,2232,1800
2750,2173,1784
2751,2124,1788
2752,2041,1818
2753,1946,1884
2754,1882,1946
2755,1834,1959
2756,1823,1945
2757,1854,1881
2758,1850,1819
2759,1790,1816
2760,1739,1804
2761,1691,1823
2762,1613,1831
2763,1544,1869
2764,1452,1944
2765,1400,1964
2766,1382,1945
2767,1385,1880
2768,1374,1804
2769,1354,1785
2770,1319,1788
2771,1289,1786
2772,1229,1799
2773,1149,1855
2774,1063,1916
2775,1039,1930
2776,1052,1914
2777,1099,1847
2778,1128,1784
2779,1097,1772
2780,1079,1787
2781,1050,1802
2782,1022,1789
2783,956,1850
2784,892,1902
2785,874,1918
2786,880,1897
2787,925,1823
2788,942,1753
2789,925,1742
2790,910,1753
2791,890,1743
2792,873,1768
2793,825,1819
2794,766,1871
2795,746,1896
2796,760,1887
2797,807,1820
2798,842,1755
2799,831,1751
2800,828,1752
2801,809,1758
2802,780,1760
2803,746,1815
2804,683,1870
2805,667,1901
2806,699,1884
2807,764,1802
2808,797,1753
2809,781,1737
2810,778,1736
2811,766,1726
2812,765,1759
2813,729,1803
2814,696,1871
2815,681,1885
2816,703,1868
2817,766,1786
2818,812,1741
2819,824,1722
2820,812,1721
2821,822,1723
2822,808,1742
2823,794,1788
2824,734,1849
2825,747,1882
2826,780,1864
2827,845,1787
2828,890,1739
2829,892,1727
2830,902,1727
2831,904,1727
2832,893,1740
2833,874,1792
2834,830,1870
2835,839,1888
2836,872,1882
2837,927,1804
2838,973,1741
2839,986,1724
2840,998,1723
2841,1001,1737
2842,1002,1740
2843,966,1815
2844,939,1866
2845,940,1897
2846,969,1865
2847,1038,1814
2848,1085,1751
2849,1096,1736
2850,1099,1724
2851,1099,1725
2852,1098,1739
2853,1081,1806
2854,1024,1872
2855,1035,1895
2856,1070,1855
2857,1144,1788
2858,1179,1738
2859,1180,1725
2860,1179,1726
2861,1181,1738
2862,1175,1743
2863,1136,1800
2864,1098,1867
2865,1086,1887
2866,1126,1879
2867,1182,1789
2868,1230,1726
2869,1240,1721
2870,1245,1725
2871,1245,1740
2872,1244,1752
2873,1212,1790
2874,1164,1855
2875,1166,1882
2876,1199,1867
2877,1259,1791
2878,1304,1743
2879,1309,1737
2880,1308,1726
2881,1306,1726
2882,1307,1742
2883,1275,1800
2884,1224,1871
2885,1224,1896
2886,1262,1865
2887,1325,1799
2888,1368,1738
2889,1359,1735
2890,1358,1723
2891,1357,1724
2892,1356,1753
2893,1336,1791
2894,1287,1871
2895,1291,1880
2896,1309,1865
2897,1374,1785
2898,1418,1723
2899,1417,1721
2900,1421,1722
2901,1420,1722
2902,1407,1740
2903,1369,1805
2904,1327,1866
2905,1323,1887
2906,1370,1881
2907,1424,1804
2908,1469,1739
2909,1472,1735
2910,1467,1722
2911,1470,1723
2912,1464,1742
2913,1435,1787
2914,1384,1870
2915,1386,1895
2916,1415,1866
2917,1468,1803
2918,1500,1740
2919,1511,1724
2920,1512,1736
2921,1502,1738
2922,1498,1751
2923,1469,1802
2924,1420,1864
2925,1422,1880
2926,1463,1869
2927,1519,1792
2928,1563,1751
2929,1563,1739
2930,1565,1740
2931,1561,1735
2932,1544,1754
2933,1499,1792
2934,1464,1854
2935,1467,1871
2936,1482,1863
2937,1534,1802
2938,1590,1741
2939,1590,1728
2940,1581,1726
2941,1577,1739
2942,1579,1754
2943,1547,1791
2944,1495,1883
2945,1483,1881
2946,1513,1865
2947,1579,1804
2948,1624,1728
2949,1614,1727
2950,1612,1724
2951,1612,1726
2952,1608,1753
2953,1566,1788
2954,1517,1867
2955,1516,1871
2956,1535,1853
2957,1608,1786
2958,1644,1727
2959,1644,1704
2960,1641,1708
2961,1640,1711
2962,1632,1727
2963,1580,1805
2964,1544,1867
2965,1546,1886
2966,1576,1868
2967,1625,1801
2968,1673,1739
2969,1676,1738
2970,1670,1736
2971,1661,1725
2972,1656,1754
2973,1624,1803
2974,1567,1872
2975,1567,1887
2976,1591,1864
2977,1648,1787
2978,1695,1728
2979,1687,1738
2980,1689,1738
2981,1689,1741
2982,1678,1754
2983,1645,1806
2984,1598,1881
2985,1592,1900
2986,1624,1882
2987,1687,1804
2988,1722,1738
2989,1711,1736
2990,1707,1727
2991,1708,1737
2992,1709,1766
2993,1675,1805
2994,1627,1865
2995,1611,1880
2996,1643,1867
2997,1721,1788
2998,1771,1736
2999,1772,1726
3000,1790,1724
3001,1805,1723
3002,1768,1742
3003,1728,1801
3004,1705,1854
3005,1725,1883
3006,1785,1865
3007,1882,1786
3008,1902,1718
3009,1935,1720
3010,2010,1710
3011,1963,1724
3012,1981,1736
3013,1948,1791
3014,1885,1839
3015,1932,1865
3016,1992,1840
3017,2184,1752
3018,2202,1696
3019,2205,1688
3020,2239,1693
3021,2314,1694
3022,2456,1722
3023,2377,1772
3024,2312,1835
3025,2377,1848
3026,2522,1834
3027,2634,1774
3028,2683,1704
3029,2714,1707
3030,2762,1690
3031,2872,1693
3032,2857,1722
3033,2878,1784
3034,2905,1854
3035,2909,1867
3036,2956,1836
3037,3037,1800
3038,3048,1755
3039,3070,1771
3040,3087,1739
3041,3127,1736
3042,3098,1757
3043,3214,1807
3044,3004,1882
3045,2952,1871
3046,3070,1848
3047,3101,1785
3048,3088,1724
3049,3182,1722
3050,3181,1722
3051,3160,1711
3052,3145,1720
3053,3115,1755
3054,3016,1818
3055,3036,1823
3056,3056,1835
3057,3099,1771
3058,3051,1679
3059,3119,1708
3060,3102,1709
3061,3116,1719
3062,3150,1719
3063,3038,1754
3064,2938,1791
3065,2926,1849
3066,2924,1807
3067,3001,1724
3068,3067,1660
3069,3021,1663
3070,3032,1672
3071,2985,1678
3072,2968,1688
3073,2911,1736
3074,2857,1784
3075,2880,1806
3076,2871,1790
3077,2895,1707
3078,2893,1643
3079,2957,1671
3080,2912,1689
3081,2890,1679
3082,2909,1709
3083,2825,1786
3084,2749,1832
3085,2696,1821
3086,2874,1833
3087,2845,1757
3088,2793,1676
3089,2793,1689
3090,2779,1692
3091,2799,1674
3092,2816,1679
3093,2748,1738
3094,2671,1815
3095,2711,1823
3096,2652,1817
3097,2703,1737
3098,2747,1675
3099,2703,1704
3100,2733,1712
3101,2759,1721
3102,2680,1726
3103,2622,1798
3104,2615,1863
3105,2640,1879
3106,2591,1849
3107,2587,1772
3108,2684,1719
3109,2682,1696
3110,2634,1708
3111,2616,1709
3112,2600,1739
3113,2536,1773
3114,2477,1835
3115,2478,1864
3116,2523,1855
3117,2587,1774
3118,2586,1719
3119,2617,1703
3120,2587,1690
3121,2539,1696
3122,2519,1753
3123,2491,1789
3124,2426,1838
3125,2413,1886
3126,2489,1864
3127,2478,1800
3128,2505,1719
3129,2428,1704
3130,2477,1692
3131,2527,1711
3132,2413,1737
3133,2413,1771
3134,2347,1837
3135,2328,1853
3136,2378,1835
3137,2447,1774
3138,2458,1724
3139,2379,1722
3140,2366,1721
3141,2393,1724
3142,2409,1741
3143,2380,1790
3144,2344,1849
3145,2301,1854
3146,2296,1837
3147,2366,1769
3148,2474,1692
3149,2365,1692
3150,2333,1706
3151,2317,1703
3152,2296,1724
3153,2270,1768
3154,2221,1833
3155,2199,1869
3156,2237,1848
3157,2264,1785
3158,2299,1735
3159,2295,1710
3160,2254,1720
3161,2302,1712
3162,2281,1738
3163,2203,1787
3164,2124,1869
3165,2123,1887
3166,2157,1868
3167,2218,1817
3168,2234,1758
3169,2232,1752
3170,2215,1752
3171,2186,1756
3172,2169,1776
3173,2095,1839
3174,2045,1899
3175,2012,1917
3176,2015,1917
3177,2063,1840
3178,2025,1789
3179,1995,1785
3180,1948,1775
3181,1912,1776
3182,1865,1792
3183,1808,1847
3184,1722,1928
3185,1672,1943
3186,1659,1919
3187,1690,1871
3188,1688,1807
3189,1641,1791
3190,1597,1803
3191,1547,1804
3192,1485,1832
3193,1422,1869
3194,1340,1933
3195,1290,1945
3196,1276,1948
3197,1289,1869
3198,1278,1803
3199,1240,1804
3200,1210,1802
3201,1196,1800
3202,1165,1805
3203,1095,1868
3204,1024,1916
3205,1002,1930
3206,990,1915
3207,1021,1837
3208,1039,1785
3209,1020,1767
3210,1003,1772
3211,984,1757
3212,956,1787
3213,907,1831
3214,841,1898
3215,814,1918
3216,823,1901
3217,858,1823
3218,877,1758
3219,860,1758
3220,845,1768
3221,825,1756
3222,813,1769
3223,775,1820
3224,712,1887
3225,701,1902
3226,732,1887
3227,781,1822
3228,823,1760
3229,810,1752
3230,806,1743
3231,795,1759
3232,776,1783
3233,729,1834
3234,669,1897
3235,664,1919
3236,683,1899
3237,732,1837
3238,776,1789
3239,765,1758
3240,764,1771
3241,759,1740
3242,748,1767
3243,717,1817
3244,666,1899
3245,666,1915
3246,688,1898
3247,758,1817
3248,813,1756
3249,813,1752
3250,811,1756
3251,813,1752
3252,812,1773
3253,781,1834
3254,731,1887
3255,732,1912
3256,764,1886
3257,824,1823
3258,874,1773
3259,875,1769
3260,877,1768
3261,876,1767
3262,875,1784
3263,840,1832
3264,808,1895
3265,811,1900
3266,856,1898
3267,920,1835
3268,956,1769
3269,969,1757
3270,956,1770
3271,967,1755
3272,968,1768
3273,943,1817
3274,893,1884
3275,891,1897
3276,927,1896
3277,985,1817
3278,1038,1753
3279,1049,1739
3280,1039,1754
3281,1040,1738
3282,1050,1755
3283,1024,1816
3284,986,1882
3285,991,1903
3286,1020,1886
3287,1081,1820
3288,1132,1774
3289,1131,1756
3290,1131,1755
3291,1134,1758
3292,1131,1774
3293,1099,1837
3294,1069,1900
3295,1068,1917
3296,1095,1902
3297,1150,1817
3298,1195,1757
3299,1195,1753
3300,1195,1742
3301,1197,1741
3302,1197,1768
3303,1178,1805
3304,1130,1868
3305,1131,1903
3306,1164,1885
3307,1226,1805
3308,1277,1741
3309,1287,1739
3310,1293,1741
3311,1289,1736
3312,1275,1767
3313,1246,1807
3314,1209,1880
3315,1194,1894
3316,1214,1887
3317,1288,1807
3318,1326,1743
3319,1337,1725
3320,1327,1740
3321,1324,1739
3322,1322,1771
3323,1277,1832
3324,1240,1884
3325,1242,1898
3326,1275,1870
3327,1336,1800
3328,1388,1743
3329,1386,1752
3330,1388,1738
3331,1375,1736
3332,1375,1740
3333,1355,1788
3334,1304,1867
3335,1293,1884
3336,1321,1865
3337,1386,1790
3338,1433,1736
3339,1433,1722
3340,1424,1723
3341,1424,1738
3342,1432,1754
3343,1402,1800
3344,1355,1866
3345,1342,1882
3346,1385,1866
3347,1447,1789
3348,1487,1727
3349,1497,1722
3350,1495,1709
3351,1496,1722
3352,1482,1741
3353,1438,1800
3354,1404,1853
3355,1402,1867
3356,1432,1853
3357,1498,1783
3358,1534,1735
3359,1531,1718
3360,1528,1720
3361,1531,1710
3362,1512,1721
3363,1483,1784
3364,1435,1847
3365,1432,1870
3366,1465,1851
3367,1518,1785
3368,1560,1736
3369,1563,1706
3370,1561,1723
3371,1560,1727
3372,1546,1741
3373,1513,1792
3374,1464,1864
3375,1451,1885
3376,1480,1869
3377,1544,1790
3378,1593,1723
3379,1581,1712
3380,1578,1725
3381,1575,1725
3382,1562,1758
3383,1515,1817
3384,1482,1881
3385,1479,1898
3386,1498,1871
3387,1559,1806
3388,1608,1754
3389,1610,1737
3390,1608,1724
3391,1594,1725
3392,1583,1757
3393,1561,1800
3394,1501,1885
3395,1499,1898
3396,1531,1869
3397,1592,1786
3398,1627,1720
3399,1627,1704
3400,1626,1708
3401,1627,1719
3402,1612,1737
3403,1581,1784
3404,1531,1863
3405,1531,1884
3406,1560,1864
3407,1613,1775
3408,1659,1724
3409,1658,1710
3410,1659,1719
3411,1648,1696
3412,1642,1720
3413,1594,1772
3414,1550,1837
3415,1551,1854
3416,1582,1834
3417,1640,1756
3418,1679,1693
3419,1689,1689
3420,1688,1691
3421,1676,1692
3422,1663,1695
3423,1640,1754
3424,1582,1808
3425,1576,1848
3426,1597,1833
3427,1661,1755
3428,1707,1696
3429,1708,1689
3430,1709,1704
3431,1710,1707
3432,1694,1720
3433,1674,1757
3434,1623,1833
3435,1628,1851
3436,1655,1836
3437,1694,1769
3438,1727,1704
3439,1755,1691
3440,1743,1706
3441,1754,1709
3442,1755,1739
3443,1740,1782
3444,1707,1837
3445,1704,1866
3446,1758,1833
3447,1887,1759
3448,1912,1712
3449,1856,1711
3450,1886,1694
3451,1931,1694
3452,1980,1721
3453,2026,1768
3454,1914,1837
3455,1942,1871
3456,2025,1850
3457,2063,1774
3458,2138,1708
3459,2206,1705
3460,2223,1694
3461,2282,1706
3462,2413,1703
3463,2349,1759
3464,2311,1840
3465,2332,1864
3466,2380,1832
3467,2551,1760
3468,2647,1707
3469,2669,1721
3470,2685,1692
3471,2695,1678
3472,2750,1723
3473,2699,1786
3474,2698,1854
3475,2760,1863
3476,2861,1837
3477,2985,1752
3478,2983,1708
3479,2969,1708
3480,2959,1735
3481,3005,1726
3482,3038,1739
3483,2975,1784
3484,2890,1850
3485,2879,1882
3486,2938,1868
3487,3034,1788
3488,3159,1735
3489,3070,1710
3490,3068,1723
3491,3050,1741
3492,3034,1769
3493,2999,1806
3494,3002,1882
3495,2908,1900
3496,2926,1879
3497,2985,1774
3498,3049,1744
3499,3050,1736
3500,3068,1719
3501,2986,1736
3502,2971,1751
3503,3018,1807
3504,2903,1869
3505,2888,1913
3506,2974,1851
3507,2955,1767
3508,2922,1737
3509,2952,1720
3510,2988,1740
3511,2941,1751
3512,2944,1753
3513,2953,1822
3514,2814,1884
3515,2764,1931
3516,2766,1897
3517,2816,1816
3518,2891,1740
3519,2878,1752
3520,2927,1735
3521,2873,1737
3522,2860,1751
3523,2814,1800
3524,2728,1848
3525,2733,1872
3526,2761,1867
3527,2793,1790
3528,2829,1722
3529,2845,1720
3530,2873,1724
3531,2733,1719
3532,2728,1738
3533,2745,1785
3534,2680,1852
3535,2670,1869
3536,2640,1879
3537,2712,1806
3538,2760,1738
3539,2680,1742
3540,2712,1726
3541,2717,1741
3542,2684,1773
3543,2639,1820
3544,2584,1885
3545,2584,1912
3546,2619,1901
3547,2638,1833
3548,2653,1767
3549,2681,1754
3550,2655,1752
3551,2664,1753
3552,2590,1775
3553,2526,1913
3554,2527,1918
3555,2583,1911
3556,2587,1853
3557,2575,1773
3558,2617,1753
3559,2576,1767
3560,2536,1757
3561,2572,1760
3562,2503,1832
3563,2462,1912
3564,2477,1920
3565,2473,1900
3566,2479,1820
3567,2540,1754
3568,2528,1750
3569,2492,1742
3570,2523,1727
3571,2528,1739
3572,2460,1771
3573,2394,1865
3574,2378,1903
3575,2392,1885
3576,2470,1817
3577,2490,1752
3578,2448,1726
3579,2474,1735
3580,2411,1726
3581,2413,1743
3582,2432,1799
3583,2378,1872
3584,2381,1902
3585,2283,1886
3586,2365,1835
3587,2398,1785
3588,2410,1775
3589,2477,1770
3590,2365,1800
3591,2315,1801
3592,2319,1853
3593,2301,1903
3594,2238,1917
3595,2251,1919
3596,2376,1821
3597,2345,1787
3598,2320,1772
3599,2361,1754
3600,2425,1735
3601,2336,1773
3602,2233,1806
3603,2205,1870
3604,2216,1880
3605,2221,1866
3606,2249,1805
3607,2303,1743
3608,2279,1705
3609,2295,1710
3610,2300,1723
3611,2331,1736
3612,2237,1790
3613,2167,1863
3614,2135,1880
3615,2172,1885
3616,2215,1818
3617,2270,1742
3618,2253,1773
3619,2264,1769
3620,2253,1768
3621,2247,1769
3622,2221,1821
3623,2172,1896
3624,2138,1902
3625,2141,1911
3626,2184,1840
3627,2232,1787
3628,2238,1783
3629,2251,1800
3630,2222,1799
3631,2205,1817
3632,2157,1863
3633,2107,1930
3634,2093,1966
3635,2104,1975
3636,2154,1903
3637,2189,1839
3638,2170,1849
3639,2151,1849
3640,2124,1882
3641,2094,1913
3642,2042,1963
3643,1961,2046
3644,1912,2078
3645,1913,2091
3646,1934,2028
3647,1933,1993
3648,1884,1974
3649,1852,1994
3650,1807,2013
3651,1757,2026
3652,1689,2106
3653,1582,2169
3654,1531,2200
3655,1513,2204
3656,1518,2137
3657,1518,2063
3658,1487,2055
3659,1454,2057
3660,1406,2074
3661,1370,2078
3662,1302,2109
3663,1211,2175
3664,1176,2190
3665,1164,2157
3666,1193,2090
3667,1212,2027
3668,1194,2009
3669,1151,1991
3670,1130,1977
3671,1099,1997
3672,1037,2030
3673,968,2088
3674,923,2108
3675,921,2094
3676,971,2012
3677,1001,1947
3678,976,1935
3679,959,1930
3680,955,1919
3681,936,1928
3682,889,1979
3683,814,2030
3684,796,2047
3685,812,2025
3686,846,1947
3687,875,1883
3688,860,1870
3689,843,1882
3690,829,1885
3691,814,1899
3692,777,1947
3693,716,2013
3694,700,2039
3695,731,2024
3696,783,1963
3697,824,1882
3698,816,1866
3699,811,1853
3700,807,1851
3701,793,1868
3702,766,1903
3703,713,1974
3704,702,1990
3705,718,1966
3706,784,1896
3707,829,1821
3708,829,1816
3709,829,1832
3710,840,1822
3711,831,1831
3712,808,1880
3713,764,1961
3714,763,1977
3715,791,1960
3716,857,1881
3717,909,1822
3718,911,1816
3719,919,1816
3720,922,1805
3721,911,1817
3722,891,1880
3723,856,1930
3724,855,1948
3725,886,1932
3726,954,1866
3727,991,1816
3728,1004,1789
3729,1015,1803
3730,1016,1801
3731,1017,1818
3732,992,1865
3733,954,1943
3734,957,1959
3735,985,1942
3736,1053,1869
3737,1102,1806
3738,1103,1801
3739,1112,1789
3740,1112,1791
3741,1113,1815
3742,1087,1864
3743,1040,1917
3744,1039,1933
3745,1080,1928
3746,1147,1864
3747,1193,1786
3748,1198,1774
3749,1208,1786
3750,1209,1784
3751,1194,1800
3752,1177,1838
3753,1130,1912
3754,1130,1944
3755,1160,1928
3756,1225,1848
3757,1263,1787
3758,1260,1768
3759,1272,1772
3760,1276,1772
3761,1274,1799
3762,1244,1834
3763,1197,1903
3764,1180,1915
3765,1210,1900
3766,1276,1832
3767,1323,1771
3768,1321,1756
3769,1322,1770
3770,1323,1757
3771,1312,1771
3772,1303,1836
3773,1242,1896
3774,1243,1913
3775,1263,1910
3776,1319,1848
3777,1359,1800
3778,1357,1773
3779,1354,1783
3780,1341,1799
3781,1341,1820
3782,1319,1880
3783,1270,1934
3784,1248,1950
3785,1274,1936
3786,1337,1866
3787,1389,1804
3788,1391,1791
3789,1386,1798
3790,1389,1803
3791,1386,1817
3792,1354,1852
3793,1296,1930
3794,1290,1947
3795,1324,1930
3796,1386,1855
3797,1436,1785
3798,1432,1773
3799,1420,1757
3800,1421,1770
3801,1420,1789
3802,1389,1821
3803,1341,1902
3804,1340,1916
3805,1360,1901
3806,1434,1838
3807,1484,1788
3808,1484,1775
3809,1485,1772
3810,1482,1788
3811,1470,1788
3812,1449,1847
3813,1392,1927
3814,1389,1933
3815,1419,1927
3816,1478,1838
3817,1519,1774
3818,1517,1783
3819,1528,1771
3820,1515,1767
3821,1501,1783
3822,1468,1821
3823,1431,1884
3824,1420,1918
3825,1449,1900
3826,1513,1820
3827,1549,1759
3828,1545,1756
3829,1550,1753
3830,1545,1757
3831,1533,1773
3832,1514,1832
3833,1455,1884
3834,1449,1912
3835,1469,1899
3836,1529,1823
3837,1579,1768
3838,1581,1756
3839,1580,1752
3840,1566,1755
3841,1564,1769
3842,1534,1806
3843,1486,1886
3844,1481,1900
3845,1499,1887
3846,1562,1820
3847,1608,1772
3848,1611,1760
3849,1611,1771
3850,1609,1769
3851,1599,1788
3852,1565,1831
3853,1511,1887
3854,1498,1917
3855,1530,1899
3856,1599,1824
3857,1647,1767
3858,1642,1751
3859,1641,1726
3860,1629,1727
3861,1627,1758
3862,1596,1831
3863,1546,1882
3864,1530,1896
3865,1549,1879
3866,1612,1805
3867,1661,1751
3868,1661,1753
3869,1658,1726
3870,1645,1738
3871,1644,1743
3872,1625,1804
3873,1564,1870
3874,1550,1912
3875,1582,1896
3876,1644,1807
3877,1688,1755
3878,1688,1751
3879,1687,1740
3880,1687,1738
3881,1673,1758
3882,1640,1815
3883,1592,1863
3884,1577,1882
3885,1598,1884
3886,1663,1817
3887,1712,1757
3888,1708,1752
3889,1707,1742
3890,1703,1754
3891,1691,1760
3892,1671,1818
3893,1623,1885
3894,1612,1916
3895,1638,1899
3896,1695,1822
3897,1738,1768
3898,1726,1737
3899,1727,1727
3900,1725,1738
3901,1710,1758
3902,1688,1816
3903,1643,1881
3904,1644,1899
3905,1690,1869
3906,1755,1804
3907,1803,1742
3908,1788,1738
3909,1784,1726
3910,1807,1736
3911,1865,1742
3912,1847,1799
3913,1757,1856
3914,1773,1886
3915,1838,1886
3916,1951,1807
3917,1961,1740
3918,1990,1737
3919,2012,1740
3920,2089,1736
3921,2096,1768
3922,2093,1821
3923,2088,1897
3924,2125,1918
3925,2112,1929
3926,2190,1831
3927,2299,1772
3928,2301,1771
3929,2383,1741
3930,2423,1771
3931,2448,1787
3932,2430,1823
3933,2456,1904
3934,2586,1928
3935,2600,1933
3936,2681,1833
3937,2776,1800
3938,2841,1783
3939,2888,1800
3940,2943,1806
3941,3051,1805
3942,2906,1864
3943,2890,1932
3944,2941,1950
3945,2986,1949
3946,3071,1882
3947,3163,1819
3948,3100,1803
3949,3081,1756
3950,3136,1756
3951,3119,1773
3952,3111,1839
3953,3038,1897
3954,3023,1884
3955,3065,1880
3956,3098,1806
3957,3183,1743
3958,3167,1726
3959,3184,1736
3960,3145,1710
3961,3118,1705
3962,3133,1758
3963,2973,1814
3964,2942,1833
3965,2985,1800
3966,3081,1741
3967,3160,1689
3968,3184,1694
3969,3086,1661
3970,3016,1628
3971,2986,1638
3972,3015,1672
3973,2923,1771
3974,2875,1771
3975,2956,1737
3976,2911,1661
3977,2968,1608
3978,2973,1607
3979,3022,1627
3980,2976,1608
3981,2938,1599
3982,2873,1675
3983,2800,1727
3984,2808,1754
3985,2813,1757
3986,2936,1661
3987,2904,1624
3988,2875,1596
3989,2863,1576
3990,2780,1593
3991,2749,1612
3992,2762,1657
3993,2698,1724
3994,2730,1725
3995,2747,1737
3996,2718,1662
3997,2749,1608
3998,2764,1577
3999,2775,1567
4000,2768,1564
4001,2684,1593
4002,2654,1614
4003,2570,1707
4004,2584,1743
4005,2571,1739
4006,2631,1672
4007,2699,1607
4008,2703,1583
4009,2700,1580
4010,2590,1594
4011,2599,1610
4012,2553,1644
4013,2504,1711
4014,2473,1737
4015,2477,1722
4016,2574,1655
4017,2601,1610
4018,2618,1581
4019,2524,1593
4020,2588,1610
4021,2522,1610
4022,2444,1686
4023,2393,1758
4024,2383,1768
4025,2425,1744
4026,2458,1680
4027,2522,1623
4028,2508,1614
4029,2553,1608
4030,2461,1608
4031,2397,1624
4032,2380,1695
4033,2317,1768
4034,2364,1771
4035,2303,1769
4036,2348,1689
4037,2441,1629
4038,2428,1627
4039,2383,1611
4040,2360,1629
4041,2304,1638
4042,2302,1691
4043,2268,1754
4044,2188,1755
4045,2205,1743
4046,2297,1659
4047,2317,1593
4048,2347,1576
4049,2247,1578
4050,2281,1580
4051,2266,1580
4052,2200,1624
4053,2159,1694
4054,2156,1726
4055,2185,1711
4056,2237,1656
4057,2327,1562
4058,2252,1574
4059,2189,1563
4060,2207,1566
4061,2200,1582
4062,2152,1594
4063,2088,1672
4064,2094,1722
4065,2062,1721
4066,2138,1645
4067,2170,1594
4068,2121,1576
4069,2141,1560
4070,2094,1559
4071,2125,1565
4072,2103,1624
4073,1950,1676
4074,1930,1694
4075,1960,1674
4076,2024,1594
4077,2064,1534
4078,2086,1531
4079,2062,1519
4080,1992,1500
4081,1978,1511
4082,1967,1577
4083,1902,1646
4084,1866,1661
4085,1821,1660
4086,1854,1579
4087,1896,1531
4088,1898,1544
4089,1880,1546
4090,1882,1546
4091,1848,1560
4092,1772,1614
4093,1720,1674
4094,1678,1690
4095,1662,1688
4096,1706,1625
4097,1752,1563
4098,1726,1550
4099,1692,1547
4100,1674,1560
4101,1654,1582
4102,1614,1655
4103,1535,1705
4104,1487,1726
4105,1482,1708
4106,1533,1656
4107,1552,1595
4108,1529,1583
4109,1501,1594
4110,1468,1592
4111,1432,1596
4112,1371,1657
4113,1279,1725
4114,1248,1740
4115,1245,1735
4116,1274,1661
4117,1278,1609
4118,1260,1598
4119,1241,1595
4120,1224,1608
4121,1192,1614
4122,1148,1662
4123,1065,1737
4124,1023,1759
4125,1023,1741
4126,1068,1675
4127,1096,1622
4128,1066,1614
4129,1022,1607
4130,1003,1614
4131,974,1639
4132,938,1693
4133,859,1757
4134,829,1790
4135,841,1773
4136,876,1704
4137,906,1640
4138,891,1630
4139,876,1643
4140,855,1629
4141,825,1657
4142,783,1696
4143,717,1771
4144,687,1800
4145,701,1790
4146,749,1725
4147,792,1660
4148,779,1656
4149,767,1660
4150,751,1672
4151,744,1676
4152,703,1720
4153,634,1800
4154,622,1818
4155,638,1818
4156,697,1741
4157,727,1694
4158,714,1689
4159,696,1691
4160,698,1689
4161,686,1704
4162,668,1758
4163,616,1820
4164,605,1847
4165,631,1831
4166,680,1757
4167,730,1690
4168,731,1674
4169,744,1686
4170,731,1689
4171,729,1706
4172,715,1742
4173,667,1816
4174,667,1836
4175,701,1833
4176,766,1755
4177,813,1707
4178,822,1689
4179,826,1688
4180,814,1691
4181,824,1702
4182,796,1751
4183,749,1807
4184,745,1817
4185,764,1819
4186,831,1727
4187,874,1659
4188,889,1656
4189,891,1675
4190,891,1676
4191,892,1705
4192,875,1742
4193,825,1819
4194,824,1834
4195,856,1823
4196,923,1753
4197,973,1688
4198,985,1678
4199,986,1686
4200,986,1680
4201,974,1710
4202,966,1756
4203,923,1823
4204,923,1840
4205,941,1837
4206,1014,1772
4207,1064,1707
4208,1067,1695
4209,1069,1704
4210,1070,1690
4211,1068,1720
4212,1051,1757
4213,991,1834
4214,1000,1864
4215,1020,1851
4216,1087,1787
4217,1128,1722
4218,1132,1719
4219,1133,1711
4220,1133,1726
4221,1130,1740
4222,1112,1789
4223,1051,1849
4224,1038,1879
4225,1082,1864
4226,1149,1788
4227,1208,1736
4228,1210,1721
4229,1213,1720
4230,1213,1710
4231,1208,1738
4232,1181,1784
4233,1134,1839
4234,1132,1865
4235,1150,1852
4236,1225,1784
4237,1272,1722
4238,1276,1709
4239,1280,1708
4240,1287,1707
4241,1272,1721
4242,1245,1768
4243,1196,1835
4244,1190,1866
4245,1210,1852
4246,1276,1784
4247,1327,1724
4248,1339,1721
4249,1342,1721
4250,1341,1720
4251,1328,1736
4252,1310,1783
4253,1260,1850
4254,1256,1880
4255,1276,1867
4256,1341,1784
4257,1386,1709
4258,1384,1704
4259,1389,1706
4260,1389,1711
4261,1390,1728
4262,1375,1771
4263,1318,1836
4264,1307,1864
4265,1338,1851
4266,1401,1787
4267,1451,1725
4268,1453,1719
4269,1451,1722
4270,1448,1722
4271,1439,1723
4272,1418,1785
4273,1359,1838
4274,1356,1867
4275,1387,1855
4276,1451,1784
4277,1495,1723
4278,1496,1710
4279,1496,1719
4280,1486,1722
4281,1480,1741
4282,1453,1803
4283,1389,1865
4284,1372,1884
4285,1406,1869
4286,1467,1801
4287,1513,1736
4288,1510,1727
4289,1512,1725
4290,1503,1727
4291,1501,1743
4292,1478,1784
4293,1420,1863
4294,1404,1881
4295,1432,1881
4296,1495,1818
4297,1546,1753
4298,1535,1736
4299,1531,1736
4300,1528,1734
4301,1527,1741
4302,1512,1800
4303,1451,1869
4304,1433,1887
4305,1455,1882
4306,1517,1806
4307,1567,1734
4308,1576,1726
4309,1576,1735
4310,1566,1736
4311,1562,1744
4312,1534,1788
4313,1481,1864
4314,1479,1870
4315,1486,1868
4316,1552,1803
4317,1600,1726
4318,1600,1721
4319,1597,1724
4320,1593,1711
4321,1577,1724
4322,1561,1783
4323,1498,1837
4324,1483,1868
4325,1512,1865
4326,1577,1786
4327,1624,1724
4328,1624,1718
4329,1615,1707
4330,1613,1709
4331,1615,1727
4332,1592,1771
4333,1528,1852
4334,1516,1882
4335,1548,1853
4336,1613,1791
4337,1661,1725
4338,1660,1722
4339,1658,1709
4340,1657,1708
4341,1643,1724
4342,1625,1782
4343,1566,1837
4344,1567,1866
4345,1592,1866
4346,1644,1788
4347,1696,1726
4348,1707,1707
4349,1705,1707
4350,1691,1706
4351,1707,1735
4352,1691,1776
4353,1632,1838
4354,1628,1852
4355,1663,1850
4356,1725,1784
4357,1768,1710
4358,1806,1725
4359,1852,1724
4360,1832,1722
4361,1821,1740
4362,1821,1774
4363,1771,1853
4364,1787,1884
4365,1902,1855
4366,2008,1758
4367,1994,1725
4368,2106,1695
4369,2027,1709
4370,2011,1725
4371,2045,1721
4372,2079,1774
4373,2092,1837
4374,2126,1854
4375,2184,1848
4376,2237,1772
4377,2414,1706
4378,2457,1704
4379,2475,1705
4380,2538,1711
4381,2621,1724
4382,2623,1768
4383,2573,1833
4384,2635,1839
4385,2730,1847
4386,2839,1787
4387,2940,1706
4388,2938,1692
4389,2919,1706
4390,2936,1707
4391,2972,1736
4392,3002,1774
4393,2878,1848
4394,2907,1854
4395,2972,1848
4396,3033,1799
4397,3088,1724
4398,3088,1707
4399,3088,1705
4400,3036,1719
4401,3087,1737
4402,3087,1819
4403,3053,1900
4404,2953,1916
4405,2968,1901
4406,3051,1821
4407,3115,1736
4408,3113,1726
4409,3068,1727
4410,3049,1743
4411,3088,1743
4412,3021,1789
4413,3004,1871
4414,2990,1915
4415,2906,1902
4416,2942,1817
4417,2991,1753
4418,3000,1768
4419,3020,1757
4420,3055,1727
4421,2986,1740
4422,2892,1792
4423,2842,1881
4424,2824,1912
4425,2860,1931
4426,2938,1847
4427,2953,1784
4428,2925,1772
4429,2922,1759
4430,2925,1753
4431,2895,1787
4432,2825,1817
4433,2712,1870
4434,2767,1898
4435,2778,1886
4436,2842,1833
4437,2796,1755
4438,2812,1756
4439,2814,1760
4440,2799,1787
4441,2764,1801
4442,2719,1834
4443,2638,1883
4444,2698,1916
4445,2697,1914
4446,2745,1854
4447,2701,1744
4448,2698,1757
4449,2732,1742
4450,2777,1759
4451,2668,1800
4452,2604,1820
4453,2556,1900
4454,2536,1928
4455,2637,1918
4456,2669,1850
4457,2652,1770
4458,2648,1785
4459,2718,1786
4460,2600,1799
4461,2558,1806
4462,2600,1853
4463,2494,1931
4464,2537,1932
4465,2474,1931
4466,2510,1880
4467,2568,1802
4468,2573,1768
4469,2553,1799
4470,2585,1802
4471,2526,1788
4472,2462,1848
4473,2396,1918
4474,2360,1934
4475,2376,1914
4476,2478,1833
4477,2535,1753
4478,2585,1738
4479,2489,1751
4480,2415,1722
4481,2424,1755
4482,2398,1832
4483,2346,1912
4484,2408,1929
4485,2392,1928
4486,2379,1850
4487,2427,1756
4488,2447,1724
4489,2412,1719
4490,2381,1738
4491,2382,1740
4492,2315,1803
4493,2271,1868
4494,2239,1887
4495,2281,1880
4496,2412,1832
4497,2440,1769
4498,2331,1736
4499,2393,1726
4500,2347,1738
4501,2328,1768
4502,2297,1805
4503,2235,1852
4504,2219,1871
4505,2267,1866
4506,2302,1788
4507,2392,1742
4508,2330,1725
4509,2269,1727
4510,2301,1737
4511,2314,1768
4512,2360,1788
4513,2284,1852
4514,2156,1884
4515,2171,1880
4516,2255,1817
4517,2331,1741
4518,2350,1738
4519,2379,1710
4520,2332,1723
4521,2238,1720
4522,2206,1769
4523,2158,1822
4524,2142,1855
4525,2218,1822
4526,2232,1752
4527,2217,1720
4528,2283,1708
4529,2264,1708
4530,2199,1692
4531,2200,1704
4532,2207,1739
4533,2190,1803
4534,2153,1868
4535,2061,1847
4536,2201,1757
4537,2186,1710
4538,2240,1704
4539,2172,1707
4540,2159,1694
4541,2174,1691
4542,2168,1752
4543,2126,1833
4544,2044,1851
4545,2077,1818
4546,2136,1756
4547,2157,1708
4548,2141,1709
4549,2173,1710
4550,2168,1736
4551,2144,1740
4552,2011,1854
4553,2013,1848
4554,2127,1784
4555,2135,1705
4556,2073,1690
4557,2122,1688
4558,2120,1679
4559,2175,1706
4560,2159,1738
4561,2011,1804
4562,1995,1833
4563,2040,1807
4564,2058,1756
4565,2126,1692
4566,2140,1678
4567,2152,1673
4568,2062,1663
4569,2025,1691
4570,2030,1739
4571,2041,1790
4572,1978,1823
4573,1968,1820
4574,2043,1767
4575,2143,1689
4576,2072,1675
4577,2041,1673
4578,2031,1662
4579,2012,1688
4580,1982,1741
4581,1964,1805
4582,1961,1838
4583,1979,1838
4584,2014,1773
4585,2063,1705
4586,2059,1687
4587,2057,1688
4588,2043,1692
4589,2027,1692
4590,1993,1735
4591,1919,1807
4592,1910,1837
4593,1917,1820
4594,1979,1754
4595,2025,1704
4596,1997,1692
4597,1963,1692
4598,1935,1706
4599,1911,1725
4600,1855,1771
4601,1774,1851
4602,1738,1880
4603,1722,1852
4604,1727,1775
4605,1707,1724
4606,1671,1743
4607,1645,1751
4608,1610,1754
4609,1548,1771
4610,1448,1821
4611,1339,1900
4612,1257,1949
4613,1258,1931
4614,1279,1864
4615,1290,1783
4616,1255,1769
4617,1196,1773
4618,1150,1786
4619,1100,1802
4620,1034,1839
4621,954,1917
4622,903,1950
4623,871,1949
4624,864,1896
4625,858,1819
4626,846,1819
4627,825,1818
4628,808,1804
4629,777,1821
4630,729,1851
4631,649,1903
4632,617,1944
4633,622,1934
4634,662,1867
4635,698,1802
4636,667,1772
4637,638,1770
4638,635,1783
4639,616,1785
4640,586,1850
4641,541,1903
4642,522,1928
4643,540,1914
4644,584,1850
4645,621,1786
4646,618,1783
4647,605,1775
4648,600,1788
4649,574,1806
4650,539,1849
4651,487,1917
4652,463,1935
4653,479,1928
4654,552,1853
4655,590,1801
4656,585,1784
4657,585,1771
4658,584,1783
4659,572,1801
4660,554,1834
4661,493,1902
4662,489,1928
4663,508,1914
4664,571,1839
4665,623,1784
4666,622,1767
4667,619,1770
4668,620,1766
4669,617,1787
4670,586,1834
4671,541,1884
4672,538,1913
4673,567,1901
4674,634,1833
4675,695,1773
4676,710,1754
4677,714,1752
4678,718,1753
4679,719,1768
4680,698,1815
4681,652,1897
4682,651,1912
4683,684,1900
4684,760,1834
4685,812,1767
4686,829,1756
4687,830,1757
4688,841,1758
4689,843,1775
4690,830,1820
4691,795,1895
4692,795,1917
4693,826,1902
4694,894,1848
4695,952,1769
4696,952,1753
4697,957,1756
4698,971,1753
4699,972,1769
4700,939,1817
4701,907,1883
4702,904,1911
4703,937,1886
4704,1004,1802
4705,1064,1740
4706,1064,1737
4707,1068,1723
4708,1069,1736
4709,1066,1753
4710,1050,1803
4711,1004,1867
4712,986,1898
4713,1016,1898
4714,1085,1832
4715,1144,1752
4716,1149,1740
4717,1160,1740
4718,1161,1739
4719,1150,1755
4720,1132,1790
4721,1096,1864
4722,1082,1886
4723,1101,1871
4724,1167,1803
4725,1226,1742
4726,1230,1723
4727,1240,1722
4728,1228,1722
4729,1228,1740
4730,1198,1800
4731,1166,1869
4732,1160,1897
4733,1181,1881
4734,1255,1819
4735,1306,1752
4736,1310,1736
4737,1306,1737
4738,1306,1737
4739,1293,1744
4740,1272,1800
4741,1225,1870
4742,1214,1902
4743,1241,1884
4744,1303,1819
4745,1352,1757
4746,1354,1739
4747,1356,1735
4748,1354,1741
4749,1344,1753
4750,1323,1801
4751,1274,1880
4752,1259,1900
4753,1278,1896
4754,1344,1806
4755,1390,1743
4756,1404,1751
4757,1407,1739
4758,1406,1752
4759,1401,1757
4760,1372,1803
4761,1339,1869
4762,1324,1902
4763,1341,1883
4764,1404,1807
4765,1453,1741
4766,1451,1736
4767,1450,1741
4768,1453,1739
4769,1437,1743
4770,1417,1800
4771,1368,1868
4772,1344,1886
4773,1373,1870
4774,1438,1802
4775,1495,1751
4776,1484,1726
4777,1487,1737
4778,1487,1737
4779,1485,1753
4780,1465,1791
4781,1416,1868
4782,1402,1898
4783,1420,1885
4784,1482,1805
4785,1529,1755
4786,1534,1727
4787,1534,1726
4788,1530,1739
4789,1517,1742
4790,1479,1801
4791,1448,1854
4792,1432,1897
4793,1453,1898
4794,1514,1818
4795,1576,1740
4796,1576,1725
4797,1566,1725
4798,1565,1727
4799,1560,1739
4800,1530,1768
4801,1481,1848
4802,1465,1866
4803,1484,1855
4804,1549,1788
4805,1597,1725
4806,1598,1720
4807,1599,1721
4808,1597,1725
4809,1593,1737
4810,1576,1774
4811,1528,1847
4812,1496,1880
4813,1514,1870
4814,1566,1816
4815,1631,1742
4816,1646,1727
4817,1656,1711
4818,1641,1723
4819,1628,1740
4820,1647,1788
4821,1590,1847
4822,1547,1885
4823,1583,1885
4824,1678,1820
4825,1849,1769
4826,1791,1738
4827,1787,1741
4828,1789,1721
4829,1710,1741
4830,1785,1771
4831,1757,1852
4832,1880,1866
4833,1867,1850
4834,1934,1785
4835,2060,1741
4836,2158,1720
4837,2137,1725
4838,2190,1710
4839,2270,1722
4840,2333,1767
4841,2377,1849
4842,2440,1870
4843,2414,1867
4844,2510,1788
4845,2711,1708
4846,2743,1707
4847,2762,1695
4848,2779,1693
4849,2860,1725
4850,2863,1770
4851,2813,1847
4852,2874,1870
4853,2862,1853
4854,2955,1802
4855,3068,1740
4856,3064,1708
4857,3052,1718
4858,3018,1738
4859,3070,1772
4860,3082,1801
4861,2988,1866
4862,2954,1917
4863,3033,1913
4864,3037,1819
4865,3051,1725
4866,3101,1727
4867,3084,1742
4868,3163,1724
4869,3115,1752
4870,3007,1789
4871,2974,1866
4872,2990,1899
4873,2943,1903
4874,3064,1804
4875,3050,1736
4876,3085,1727
4877,3064,1737
4878,3022,1725
4879,3015,1722
4880,2973,1771
4881,2909,1850
4882,2904,1883
4883,2890,1880
4884,2922,1820
4885,2984,1740
4886,2970,1739
4887,2984,1737
4888,2935,1720
4889,2889,1727
4890,2907,1756
4891,2797,1832
4892,2792,1866
4893,2830,1865
4894,2892,1786
4895,2808,1721
4896,2828,1710
4897,2889,1720
4898,2888,1723
4899,2799,1736
4900,2760,1799
4901,2743,1872
4902,2685,1899
4903,2702,1884
4904,2703,1815
4905,2760,1759
4906,2813,1753
4907,2747,1753
4908,2760,1753
4909,2799,1768
4910,2734,1832
4911,2663,1880
4912,2622,1913
4913,2584,1898
4914,2682,1819
4915,2748,1736
4916,2686,1738
4917,2714,1725
4918,2680,1725
4919,2634,1754
4920,2601,1789
4921,2602,1865
4922,2571,1885
4923,2540,1864
4924,2601,1791
4925,2584,1719
4926,2560,1704
4927,2591,1720
4928,2622,1724
4929,2637,1736
4930,2602,1773
4931,2458,1853
4932,2379,1913
4933,2424,1882
4934,2472,1802
4935,2538,1736
4936,2618,1720
4937,2587,1704
4938,2511,1705
4939,2478,1736
4940,2445,1752
4941,2367,1833
4942,2411,1850
4943,2379,1850
4944,2396,1770
4945,2456,1690
4946,2508,1675
4947,2476,1694
4948,2473,1706
4949,2488,1706
4950,2473,1756
4951,2283,1823
4952,2316,1863
4953,2363,1854
4954,2347,1773
4955,2440,1705
4956,2394,1691
4957,2439,1707
4958,2395,1721
4959,2380,1726
4960,2367,1773
4961,2328,1833
4962,2335,1852
4963,2333,1881
4964,2269,1790
4965,2366,1719
4966,2360,1692
4967,2334,1693
4968,2333,1708
4969,2364,1706
4970,2285,1788
4971,2296,1848
4972,2174,1869
4973,2200,1864
4974,2252,1800
4975,2313,1703
4976,2314,1692
4977,2334,1708
4978,2281,1707
4979,2316,1708
4980,2250,1742
4981,2222,1818
4982,2191,1851
4983,2155,1850
4984,2219,1773
4985,2284,1690
4986,2262,1720
4987,2233,1708
4988,2232,1691
4989,2319,1689
4990,2200,1758
4991,2190,1833
4992,2176,1867
4993,2093,1835
4994,2185,1788
4995,2233,1720
4996,2238,1694
4997,2232,1705
4998,2300,1691
4999,2221,1704
5000,2173,1771
