Counter,Channel1,Channel2
0,1869,1708
1,1822,1661
2,1820,1642
3,1790,1614
4,1784,1576
5,1690,1886
6,1624,2126
7,1592,2188
8,1673,2057
9,1806,1804
10,1870,1724
11,1835,1647
12,1800,1581
13,1807,1593
14,1802,1623
15,1695,1849
16,1623,2123
17,1566,2202
18,1676,2078
19,1774,1802
20,1814,1655
21,1834,1695
22,1838,1646
23,1864,1615
24,1853,1640
25,1727,1911
26,1625,2153
27,1579,2185
28,1661,2043
29,1800,1817
30,1867,1758
31,1853,1690
32,1835,1645
33,1850,1627
34,1850,1628
35,1725,1868
36,1631,2121
37,1598,2231
38,1673,2074
39,1820,1850
40,1833,1704
41,1833,1661
42,1855,1662
43,1870,1646
44,1849,1610
45,1755,1883
46,1679,2158
47,1628,2299
48,1659,2135
49,1768,1823
50,1790,1760
51,1816,1770
52,1819,1752
53,1804,1753
54,1787,1782
55,1689,2056
56,1578,2317
57,1517,2380
58,1609,2253
59,1738,2010
60,1741,1912
61,1753,1853
62,1744,1836
63,1770,1821
64,1770,1837
65,1656,2077
66,1528,2334
67,1501,2382
68,1592,2286
69,1739,2009
70,1755,1917
71,1751,1869
72,1754,1837
73,1753,1820
74,1725,1820
75,1646,2028
76,1562,2224
77,1534,2331
78,1626,2267
79,1756,2009
80,1790,1853
81,1769,1775
82,1754,1786
83,1772,1783
84,1615,2200
85,1593,2264
86,1576,2364
87,1630,2248
88,1760,1993
89,1772,1879
90,1772,1772
91,1799,1759
92,1791,1686
93,1784,1753
94,1686,1965
95,1597,2203
96,1597,2327
97,1661,2204
98,1756,1950
99,1785,1801
100,1788,1753
101,1816,1738
102,1832,1760
103,1818,1758
104,1724,1979
105,1608,2205
106,1550,2298
107,1626,2184
108,1742,1868
109,1791,1757
110,1804,1768
111,1818,1751
112,1821,1711
113,1774,1679
114,1694,1930
115,1598,2136
116,1577,2235
117,1643,2142
118,1775,1897
119,1802,1773
120,1801,1759
121,1805,1756
122,1806,1706
123,1818,1709
124,1677,1932
125,1564,2152
126,1594,2250
127,1675,2124
128,1788,1884
129,1821,1770
130,1786,1671
131,1852,1692
132,1870,1704
133,1822,1662
134,1742,1899
135,1641,2093
136,1623,2175
137,1676,2108
138,1790,1848
139,1833,1740
140,1855,1721
141,1800,1674
142,1803,1611
143,1801,1656
144,1711,1887
145,1609,2058
146,1590,2169
147,1673,2057
148,1805,1804
149,1816,1659
150,1806,1641
151,1804,1642
152,1823,1657
153,1835,1646
154,1691,1820
155,1596,2046
156,1597,2174
157,1676,2061
158,1790,1837
159,1819,1689
160,1834,1646
161,1853,1644
162,1847,1640
163,1820,1599
164,1720,1838
165,1628,2064
166,1594,2142
167,1678,2011
168,1807,1838
169,1852,1726
170,1822,1672
171,1791,1657
172,1818,1612
173,1838,1626
174,1737,1888
175,1647,2095
176,1648,2199
177,1692,2025
178,1787,1773
179,1851,1658
180,1849,1659
181,1850,1631
182,1835,1613
183,1838,1663
184,1706,1840
185,1611,2014
186,1596,2106
187,1675,2015
188,1760,1707
189,1816,1607
190,1819,1580
191,1840,1528
192,1896,1512
193,1869,1480
194,1753,1675
195,1642,1901
196,1656,1949
197,1744,1822
198,1837,1578
199,1836,1465
200,1871,1439
201,1870,1451
202,1870,1405
203,1864,1390
204,1741,1656
205,1674,1869
206,1656,1962
207,1679,1870
208,1816,1624
209,1914,1534
210,1884,1452
211,1885,1434
212,1880,1464
213,1868,1481
214,1737,1688
215,1642,1915
216,1592,2006
217,1680,1912
218,1832,1630
219,1882,1561
220,1848,1500
221,1831,1481
222,1866,1500
223,1872,1545
224,1759,1782
225,1643,1963
226,1623,2046
227,1675,1932
228,1837,1705
229,1887,1645
230,1897,1611
231,1839,1560
232,1838,1564
233,1833,1579
234,1710,1819
235,1611,1993
236,1624,2057
237,1693,1976
238,1831,1719
239,1867,1614
240,1851,1614
241,1850,1624
242,1817,1579
243,1806,1565
244,1694,1790
245,1600,2041
246,1607,2144
247,1686,2029
248,1774,1751
249,1820,1656
250,1821,1646
251,1839,1614
252,1831,1592
253,1816,1641
254,1704,1850
255,1626,2073
256,1592,2171
257,1628,2078
258,1720,1804
259,1759,1690
260,1773,1693
261,1753,1694
262,1753,1674
263,1743,1661
264,1640,1865
265,1565,2107
266,1565,2250
267,1672,2168
268,1819,1835
269,1822,1687
270,1785,1768
271,1774,1757
272,1800,1628
273,1741,1677
274,1591,1944
275,1531,2154
276,1565,2216
277,1642,2064
278,1739,1661
279,1770,1720
280,1772,1707
281,1725,1692
282,1752,1727
283,1726,1852
284,1673,1885
285,1562,2156
286,1514,2300
287,1628,2218
288,1656,1948
289,1678,1743
290,1770,1866
291,1766,1704
292,1677,1660
293,1613,1660
294,1593,1774
295,1534,2125
296,1436,2207
297,1608,2280
298,1645,1952
299,1704,1835
300,1755,1915
301,1785,1775
302,1727,1676
303,1708,1768
304,1563,1930
305,1467,2167
306,1477,2328
307,1579,2126
308,1673,1864
309,1772,1837
310,1753,1974
311,1773,1735
312,1806,1689
313,1759,1867
314,1599,1914
315,1486,2232
316,1593,2239
317,1579,2154
318,1694,1977
319,1756,1931
320,1773,1837
321,1719,1759
322,1696,1760
323,1642,1760
324,1566,1947
325,1432,2271
326,1454,2299
327,1518,2232
328,1720,2030
329,1742,1901
330,1688,1851
331,1740,1790
332,1673,1835
333,1676,1816
334,1562,1976
335,1515,2190
336,1548,2346
337,1640,2095
338,1656,1865
339,1720,1914
340,1799,1768
341,1834,1770
342,1833,1707
343,1770,1771
344,1612,1871
345,1576,2110
346,1672,2200
347,1720,2152
348,1818,1853
349,1822,1693
350,1976,1760
351,1866,1678
352,1854,1679
353,1886,1660
354,1934,1913
355,1902,2187
356,1850,2232
357,1839,2175
358,2122,1947
359,2080,1787
360,2107,1726
361,2175,1768
362,2235,1673
363,2170,1643
364,2216,1949
365,2135,2184
366,2089,2254
367,2087,2218
368,2280,1950
369,2392,1799
370,2362,1801
371,2455,1817
372,2503,1757
373,2510,1768
374,2335,1998
375,2269,2155
376,2219,2203
377,2266,2144
378,2377,1945
379,2424,1835
380,2505,1805
381,2523,1806
382,2454,1740
383,2444,1708
384,2446,2138
385,2266,2064
386,2219,2249
387,2191,2190
388,2411,1789
389,2427,1759
390,2331,1770
391,2382,1627
392,2381,1707
393,2397,1659
394,2343,2023
395,2302,2256
396,2208,2221
397,2220,2135
398,2271,1883
399,2350,1737
400,2376,1771
401,2456,1803
402,2397,1647
403,2442,1831
404,2239,1960
405,2123,2047
406,2108,2219
407,2187,2091
408,2271,1822
409,2329,1816
410,2493,1722
411,2473,1576
412,2473,1743
413,2296,1707
414,2252,1902
415,2158,2153
416,2175,2255
417,2256,2091
418,2392,1896
419,2376,1744
420,2332,1883
421,2383,1645
422,2396,1656
423,2474,1822
424,2359,1974
425,2204,2013
426,2218,2287
427,2284,2269
428,2413,1849
429,2333,1707
430,2335,1839
431,2479,1946
432,2446,1718
433,2407,1789
434,2318,1928
435,2186,2124
436,2125,2015
437,2216,2251
438,2334,1791
439,2392,1774
440,2407,1757
441,2397,1769
442,2382,1707
443,2330,1695
444,2223,1885
445,2166,2202
446,2184,2200
447,2256,2231
448,2255,1786
449,2444,1549
450,2426,1545
451,2347,1784
452,2256,1545
453,2336,1616
454,2344,1948
455,2073,2062
456,2189,2042
457,2089,2063
458,2139,1723
459,2301,1854
460,2281,1660
461,2283,1807
462,2394,1930
463,2231,1752
464,2030,1913
465,1944,2220
466,2031,2152
467,1998,2187
468,2078,1887
469,2108,1803
470,2123,1708
471,2090,1690
472,2120,1663
473,2062,1711
474,1932,1965
475,1806,2335
476,1754,2174
477,1822,2076
478,1885,2026
479,1920,1752
480,1903,1807
481,1871,1704
482,1867,1424
483,1879,1868
484,1774,1995
485,1647,2215
486,1584,2252
487,1576,2153
488,1786,1832
489,1737,1755
490,1711,1690
491,1706,1803
492,1657,1641
493,1755,1595
494,1517,1899
495,1452,2158
496,1402,2141
497,1496,2032
498,1549,1882
499,1579,1676
500,1597,1690
501,1599,1656
502,1563,1595
503,1532,1692
504,1433,1912
505,1326,2041
506,1306,2137
507,1369,2088
508,1465,1819
509,1502,1752
510,1487,1709
511,1499,1627
512,1483,1672
513,1464,1657
514,1370,1823
515,1244,2046
516,1242,2170
517,1287,2056
518,1420,1852
519,1468,1705
520,1454,1676
521,1439,1672
522,1419,1628
523,1420,1608
524,1320,1820
525,1208,2045
526,1207,2141
527,1248,2061
528,1384,1818
529,1452,1705
530,1436,1692
531,1423,1662
532,1435,1644
533,1422,1632
534,1325,1817
535,1228,2042
536,1212,2139
537,1278,2073
538,1401,1802
539,1453,1671
540,1449,1599
541,1452,1608
542,1469,1625
543,1455,1627
544,1374,1806
545,1260,2042
546,1242,2135
547,1320,2057
548,1448,1818
549,1487,1672
550,1483,1642
551,1482,1626
552,1478,1607
553,1471,1609
554,1369,1785
555,1256,2010
556,1243,2127
557,1323,2039
558,1453,1805
559,1512,1676
560,1514,1640
561,1515,1607
562,1534,1595
563,1544,1609
564,1439,1772
565,1324,1997
566,1310,2092
567,1389,2012
568,1527,1784
569,1582,1643
570,1577,1594
571,1594,1578
572,1594,1565
573,1581,1597
574,1483,1769
575,1374,1982
576,1358,2079
577,1422,2013
578,1560,1789
579,1615,1656
580,1625,1627
581,1627,1598
582,1627,1583
583,1624,1596
584,1529,1774
585,1435,2014
586,1406,2103
587,1482,2024
588,1611,1772
589,1657,1641
590,1656,1613
591,1661,1611
592,1662,1594
593,1671,1593
594,1576,1788
595,1451,2011
596,1434,2090
597,1496,2013
598,1629,1799
599,1694,1657
600,1689,1622
601,1689,1593
602,1690,1578
603,1689,1578
604,1595,1756
605,1484,2007
606,1465,2108
607,1519,2026
608,1642,1785
609,1710,1657
610,1708,1613
611,1708,1584
612,1711,1579
613,1708,1591
614,1608,1772
615,1484,1995
616,1464,2090
617,1527,2011
618,1674,1786
619,1726,1630
620,1725,1595
621,1726,1577
622,1727,1551
623,1724,1591
624,1629,1769
625,1512,2010
626,1480,2094
627,1551,2026
628,1679,1787
629,1725,1645
630,1739,1614
631,1752,1596
632,1742,1579
633,1738,1582
634,1655,1768
635,1535,2012
636,1512,2121
637,1566,2040
638,1694,1801
639,1758,1656
640,1758,1615
641,1757,1595
642,1758,1583
643,1752,1598
644,1656,1768
645,1548,2008
646,1519,2107
647,1594,2044
648,1719,1790
649,1767,1645
650,1755,1624
651,1759,1610
652,1757,1583
653,1755,1595
654,1662,1767
655,1560,2012
656,1532,2120
657,1607,2047
658,1725,1815
659,1788,1662
660,1787,1629
661,1785,1613
662,1782,1580
663,1772,1582
664,1680,1756
665,1566,2008
666,1544,2111
667,1599,2032
668,1737,1804
669,1800,1654
670,1799,1614
671,1790,1595
672,1788,1575
673,1784,1576
674,1692,1752
675,1580,1994
676,1561,2105
677,1613,2027
678,1742,1786
679,1805,1641
680,1808,1610
681,1814,1593
682,1815,1592
683,1806,1582
684,1724,1754
685,1607,1994
686,1579,2094
687,1656,2029
688,1774,1800
689,1835,1647
690,1833,1614
691,1834,1598
692,1848,1594
693,1838,1592
694,1741,1726
695,1612,1946
696,1561,2029
697,1597,1961
698,1720,1725
699,1757,1535
700,1754,1495
701,1741,1467
702,1722,1430
703,1706,1404
704,1599,1535
705,1469,1768
706,1436,1837
707,1483,1787
708,1598,1527
709,1646,1356
710,1628,1326
711,1623,1306
712,1608,1272
713,1584,1259
714,1486,1389
715,1353,1629
716,1319,1722
717,1372,1657
718,1497,1447
719,1533,1278
720,1511,1230
721,1501,1228
722,1485,1197
723,1468,1214
724,1376,1343
725,1243,1595
726,1211,1692
727,1261,1628
728,1386,1392
729,1437,1239
730,1438,1241
731,1422,1198
732,1406,1198
733,1402,1179
734,1324,1337
735,1198,1577
736,1176,1672
737,1225,1608
738,1336,1372
739,1389,1213
740,1401,1208
741,1400,1151
742,1389,1160
743,1373,1160
744,1279,1304
745,1164,1546
746,1142,1657
747,1194,1581
748,1325,1374
749,1401,1231
750,1389,1182
751,1385,1180
752,1388,1147
753,1374,1180
754,1308,1352
755,1200,1609
756,1176,1710
757,1210,1671
758,1327,1434
759,1389,1295
760,1400,1291
761,1400,1257
762,1402,1256
763,1407,1258
764,1318,1417
765,1196,1655
766,1165,1757
767,1216,1727
768,1338,1498
769,1406,1342
770,1420,1309
771,1415,1309
772,1417,1276
773,1416,1309
774,1336,1449
775,1210,1708
776,1193,1832
777,1245,1767
778,1366,1550
779,1432,1388
780,1423,1369
781,1448,1369
782,1450,1358
783,1438,1374
784,1359,1529
785,1255,1772
786,1223,1882
787,1274,1838
788,1404,1624
789,1481,1454
790,1470,1422
791,1470,1403
792,1481,1401
793,1484,1405
794,1403,1548
795,1290,1789
796,1261,1901
797,1319,1854
798,1449,1641
799,1516,1479
800,1526,1439
801,1528,1447
802,1530,1431
803,1528,1424
804,1450,1567
805,1338,1823
806,1310,1934
807,1359,1886
808,1482,1660
809,1535,1497
810,1533,1466
811,1532,1467
812,1528,1448
813,1518,1469
814,1431,1600
815,1304,1848
816,1263,1961
817,1323,1935
818,1432,1693
819,1495,1534
820,1485,1515
821,1486,1513
822,1483,1487
823,1465,1514
824,1375,1693
825,1255,1930
826,1208,2046
827,1246,1995
828,1371,1772
829,1449,1615
830,1438,1595
831,1434,1579
832,1421,1576
833,1406,1576
834,1326,1724
835,1199,1959
836,1178,2074
837,1216,2040
838,1340,1802
839,1408,1646
840,1415,1624
841,1389,1598
842,1400,1611
843,1391,1612
844,1327,1737
845,1227,1991
846,1194,2120
847,1231,2059
848,1341,1848
849,1422,1692
850,1416,1631
851,1416,1613
852,1419,1600
853,1415,1613
854,1335,1740
855,1226,1982
856,1196,2092
857,1232,2059
858,1352,1832
859,1420,1672
860,1433,1655
861,1439,1642
862,1454,1599
863,1436,1592
864,1338,1722
865,1231,1966
866,1213,2087
867,1273,2040
868,1390,1814
869,1469,1661
870,1466,1629
871,1468,1582
872,1483,1576
873,1482,1583
874,1403,1707
875,1291,1947
876,1259,2062
877,1319,2014
878,1439,1803
879,1517,1642
880,1515,1627
881,1513,1598
882,1513,1576
883,1514,1582
884,1448,1708
885,1338,1962
886,1303,2077
887,1355,2028
888,1480,1805
889,1551,1631
890,1551,1624
891,1536,1596
892,1551,1577
893,1549,1582
894,1477,1722
895,1355,1947
896,1323,2060
897,1369,2040
898,1498,1819
899,1564,1645
900,1566,1614
901,1581,1610
902,1591,1595
903,1580,1582
904,1518,1722
905,1416,1979
906,1385,2092
907,1431,2048
908,1544,1832
909,1614,1655
910,1615,1643
911,1622,1625
912,1614,1609
913,1614,1598
914,1543,1737
915,1422,1981
916,1392,2095
917,1450,2047
918,1575,1830
919,1646,1675
920,1632,1642
921,1640,1610
922,1642,1594
923,1641,1598
924,1575,1725
925,1454,1977
926,1432,2096
927,1478,2058
928,1595,1832
929,1672,1663
930,1673,1642
931,1675,1627
932,1688,1609
933,1679,1600
934,1612,1727
935,1497,1982
936,1453,2095
937,1500,2056
938,1626,1836
939,1707,1657
940,1708,1625
941,1706,1613
942,1695,1595
943,1694,1595
944,1625,1719
945,1500,1963
946,1468,2076
947,1513,2057
948,1641,1820
949,1708,1657
950,1706,1628
951,1710,1610
952,1710,1582
953,1709,1596
954,1642,1711
955,1518,1963
956,1482,2088
957,1527,2057
958,1644,1833
959,1724,1662
960,1718,1630
961,1710,1608
962,1719,1593
963,1721,1599
964,1655,1726
965,1530,1977
966,1485,2092
967,1526,2047
968,1645,1839
969,1724,1658
970,1738,1639
971,1736,1614
972,1736,1596
973,1735,1608
974,1656,1724
975,1534,1977
976,1503,2105
977,1546,2061
978,1663,1840
979,1739,1663
980,1740,1658
981,1738,1644
982,1741,1628
983,1741,1628
984,1672,1753
985,1560,1997
986,1515,2121
987,1562,2077
988,1675,1863
989,1755,1690
990,1752,1646
991,1739,1640
992,1751,1624
993,1743,1624
994,1687,1739
995,1563,1991
996,1528,2106
997,1578,2076
998,1692,1864
999,1771,1690
1000,1774,1647
1001,1773,1629
1002,1784,1610
1003,1784,1611
1004,1720,1737
1005,1596,1977
1006,1551,2092
1007,1593,2060
1008,1710,1852
1009,1800,1661
1010,1790,1628
1011,1801,1629
1012,1803,1610
1013,1789,1612
1014,1727,1722
1015,1608,1981
1016,1577,2094
1017,1610,2064
1018,1735,1854
1019,1817,1677
1020,1817,1645
1021,1816,1631
1022,1817,1625
1023,1806,1624
1024,1742,1725
1025,1624,1980
1026,1578,2106
1027,1629,2077
1028,1741,1866
1029,1822,1690
1030,1819,1647
1031,1820,1627
1032,1819,1607
1033,1819,1614
1034,1756,1726
1035,1641,1979
1036,1594,2093
1037,1627,2074
1038,1756,1864
1039,1823,1675
1040,1819,1655
1041,1823,1629
1042,1832,1609
1043,1822,1608
1044,1755,1719
1045,1630,1965
1046,1596,2104
1047,1627,2074
1048,1754,1866
1049,1832,1688
1050,1834,1660
1051,1819,1639
1052,1823,1616
1053,1820,1626
1054,1756,1737
1055,1639,1977
1056,1593,2103
1057,1630,2088
1058,1755,1882
1059,1833,1704
1060,1837,1659
1061,1832,1646
1062,1832,1628
1063,1820,1627
1064,1757,1727
1065,1640,1979
1066,1592,2111
1067,1628,2094
1068,1740,1885
1069,1833,1689
1070,1832,1672
1071,1833,1645
1072,1831,1641
1073,1820,1631
1074,1758,1740
1075,1640,1979
1076,1592,2104
1077,1643,2094
1078,1759,1878
1079,1849,1688
1080,1831,1656
1081,1832,1646
1082,1833,1610
1083,1625,2010
1084,1609,2104
1085,1641,2080
1086,1758,1867
1087,1851,1672
1088,1851,1643
1089,1849,1630
1090,1849,1608
1091,1838,1596
1092,1787,1710
1093,1661,1964
1094,1615,2075
1095,1655,2064
1096,1769,1851
1097,1863,1663
1098,1854,1655
1099,1856,1616
1100,1864,1595
1101,1854,1591
1102,1801,1703
1103,1673,1947
1104,1629,2077
1105,1663,2060
1106,1784,1848
1107,1870,1659
1108,1856,1623
1109,1852,1612
1110,1850,1591
1111,1850,1594
1112,1791,1707
1113,1672,1947
1114,1625,2079
1115,1658,2064
1116,1775,1854
1117,1867,1661
1118,1867,1644
1119,1868,1630
1120,1870,1614
1121,1868,1611
1122,1808,1710
1123,1687,1976
1124,1643,2105
1125,1689,2090
1126,1805,1886
1127,1887,1689
1128,1885,1656
1129,1884,1630
1130,1887,1623
1131,1880,1625
1132,1807,1722
1133,1691,1977
1134,1643,2091
1135,1671,2064
1136,1772,1864
1137,1867,1673
1138,1868,1641
1139,1864,1613
1140,1864,1598
1141,1855,1594
1142,1801,1694
1143,1671,1949
1144,1625,2080
1145,1648,2074
1146,1767,1866
1147,1852,1660
1148,1853,1628
1149,1855,1614
1150,1852,1598
1151,1852,1608
1152,1801,1703
1153,1672,1960
1154,1612,2077
1155,1656,2076
1156,1776,1867
1157,1867,1676
1158,1865,1641
1159,1866,1632
1160,1864,1610
1161,1851,1610
1162,1790,1704
1163,1662,1962
1164,1614,2108
1165,1657,2090
1166,1773,1882
1167,1865,1689
1168,1853,1656
1169,1852,1642
1170,1851,1612
1171,1851,1611
1172,1803,1704
1173,1677,1960
1174,1640,2078
1175,1663,2077
1176,1787,1866
1177,1870,1673
1178,1865,1643
1179,1863,1623
1180,1867,1596
1181,1880,1598
1182,1818,1692
1183,1690,1951
1184,1656,2078
1185,1688,2063
1186,1790,1849
1187,1902,1641
1188,1931,1640
1189,1934,1615
1190,1934,1578
1191,1961,1579
1192,1930,1688
1193,1831,1932
1194,1804,2063
1195,1850,2044
1196,1998,1850
1197,2122,1655
1198,2138,1630
1199,2167,1624
1200,2190,1599
1201,2219,1612
1202,2191,1706
1203,2090,1976
1204,2075,2123
1205,2136,2121
1206,2270,1913
1207,2383,1725
1208,2412,1709
1209,2440,1693
1210,2444,1691
1211,2464,1704
1212,2442,1790
1213,2333,2046
1214,2300,2216
1215,2358,2237
1216,2478,2044
1217,2584,1836
1218,2619,1815
1219,2637,1806
1220,2638,1789
1221,2634,1816
1222,2591,1915
1223,2477,2172
1224,2443,2314
1225,2488,2329
1226,2590,2135
1227,2696,1945
1228,2712,1930
1229,2702,1918
1230,2700,1917
1231,2696,1915
1232,2623,2011
1233,2480,2270
1234,2426,2411
1235,2456,2411
1236,2559,2208
1237,2636,2007
1238,2604,1963
1239,2573,1948
1240,2553,1928
1241,2538,1928
1242,2474,2007
1243,2328,2252
1244,2267,2395
1245,2282,2381
1246,2382,2174
1247,2461,1978
1248,2457,1936
1249,2442,1913
1250,2427,1886
1251,2413,1894
1252,2379,1977
1253,2238,2218
1254,2187,2359
1255,2206,2347
1256,2319,2143
1257,2410,1935
1258,2409,1895
1259,2408,1870
1260,2412,1848
1261,2411,1838
1262,2360,1930
1263,2223,2172
1264,2171,2313
1265,2199,2303
1266,2313,2119
1267,2398,1903
1268,2381,1881
1269,2392,1851
1270,2393,1831
1271,2391,1821
1272,2333,1903
1273,2199,2155
1274,2142,2286
1275,2167,2285
1276,2267,2079
1277,2351,1879
1278,2350,1838
1279,2346,1816
1280,2344,1788
1281,2331,1789
1282,2270,1879
1283,2138,2124
1284,2088,2266
1285,2108,2267
1286,2219,2062
1287,2314,1864
1288,2314,1820
1289,2303,1790
1290,2311,1770
1291,2299,1768
1292,2240,1851
1293,2112,2095
1294,2062,2237
1295,2090,2239
1296,2201,2039
1297,2296,1824
1298,2285,1791
1299,2285,1774
1300,2283,1759
1301,2271,1755
1302,2216,1833
1303,2087,2076
1304,2030,2216
1305,2059,2218
1306,2171,2023
1307,2263,1816
1308,2253,1768
1309,2250,1739
1310,2234,1725
1311,2234,1724
1312,2183,1802
1313,2043,2042
1314,1991,2184
1315,2009,2185
1316,2121,1991
1317,2205,1786
1318,2203,1741
1319,2192,1723
1320,2187,1703
1321,2175,1693
1322,2121,1776
1323,1979,2030
1324,1917,2183
1325,1935,2176
1326,2044,1983
1327,2138,1769
1328,2138,1726
1329,2125,1704
1330,2123,1674
1331,2120,1676
1332,2059,1759
1333,1930,2011
1334,1880,2156
1335,1896,2158
1336,1996,1965
1337,2092,1759
1338,2092,1722
1339,2091,1693
1340,2089,1679
1341,2076,1673
1342,2027,1752
1343,1887,2010
1344,1848,2140
1345,1865,2140
1346,1966,1945
1347,2058,1739
1348,2058,1704
1349,2059,1676
1350,2046,1657
1351,2030,1659
1352,1996,1726
1353,1864,1982
1354,1800,2121
1355,1817,2125
1356,1927,1928
1357,2013,1721
1358,2025,1692
1359,2024,1663
1360,2010,1645
1361,1998,1631
1362,1959,1723
1363,1820,1979
1364,1768,2126
1365,1788,2127
1366,1896,1935
1367,1984,1725
1368,1994,1689
1369,1994,1674
1370,1981,1642
1371,1980,1642
1372,1934,1712
1373,1815,1962
1374,1758,2106
1375,1782,2108
1376,1882,1913
1377,1982,1708
1378,1977,1672
1379,1980,1643
1380,1981,1614
1381,1982,1612
1382,1935,1692
1383,1802,1934
1384,1743,2092
1385,1771,2103
1386,1880,1918
1387,1979,1705
1388,1976,1662
1389,1966,1641
1390,1966,1624
1391,1962,1615
1392,1920,1691
1393,1788,1961
1394,1724,2108
1395,1741,2107
1396,1851,1912
1397,1962,1706
1398,1960,1672
1399,1961,1655
1400,1950,1640
1401,1949,1624
1402,1915,1693
1403,1784,1946
1404,1722,2093
1405,1738,2106
1406,1853,1917
1407,1951,1707
1408,1946,1658
1409,1935,1631
1410,1932,1610
1411,1931,1615
1412,1886,1693
1413,1752,1947
1414,1695,2104
1415,1723,2106
1416,1831,1911
1417,1930,1691
1418,1930,1663
1419,1933,1645
1420,1932,1625
1421,1932,1625
1422,1887,1687
1423,1759,1935
1424,1707,2090
1425,1734,2092
1426,1850,1914
1427,1951,1692
1428,1960,1646
1429,1960,1629
1430,1960,1598
1431,1950,1597
1432,1918,1671
1433,1800,1916
1434,1753,2076
1435,1760,2088
1436,1882,1897
1437,1993,1664
1438,2007,1625
1439,2008,1613
1440,2010,1594
1441,2014,1598
1442,1983,1661
1443,1852,1915
1444,1802,2073
1445,1818,2092
1446,1944,1901
1447,2045,1690
1448,2046,1640
1449,2011,1609
1450,1982,1579
1451,1964,1551
1452,1902,1611
1453,1755,1864
1454,1691,2039
1455,1706,2043
1456,1787,1836
1457,1881,1608
1458,1865,1546
1459,1852,1543
1460,1839,1486
1461,1835,1466
1462,1803,1514
1463,1640,1757
1464,1550,1916
1465,1576,1928
1466,1675,1724
1467,1739,1499
1468,1738,1447
1469,1727,1400
1470,1694,1372
1471,1673,1359
1472,1628,1406
1473,1486,1673
1474,1398,1801
1475,1401,1832
1476,1486,1624
1477,1608,1403
1478,1600,1356
1479,1594,1355
1480,1563,1307
1481,1535,1292
1482,1482,1368
1483,1342,1623
1484,1289,1770
1485,1289,1772
1486,1385,1560
1487,1467,1354
1488,1464,1311
1489,1450,1278
1490,1422,1248
1491,1406,1242
1492,1358,1320
1493,1224,1591
1494,1166,1725
1495,1150,1725
1496,1246,1549
1497,1351,1337
1498,1337,1290
1499,1335,1303
1500,1323,1257
1501,1310,1260
1502,1261,1310
1503,1136,1583
1504,1080,1753
1505,1083,1754
1506,1181,1584
1507,1273,1369
1508,1262,1352
1509,1260,1321
1510,1259,1318
1511,1257,1307
1512,1225,1372
1513,1086,1646
1514,1024,1806
1515,1040,1818
1516,1149,1647
1517,1256,1417
1518,1258,1384
1519,1247,1369
1520,1246,1339
1521,1239,1319
1522,1198,1375
1523,1080,1628
1524,1001,1801
1525,1024,1818
1526,1148,1639
1527,1245,1421
1528,1245,1383
1529,1244,1341
1530,1257,1340
1531,1256,1367
1532,1214,1421
1533,1086,1672
1534,1024,1835
1535,1053,1866
1536,1152,1689
1537,1275,1469
1538,1274,1421
1539,1286,1422
1540,1289,1406
1541,1286,1422
1542,1256,1468
1543,1129,1708
1544,1080,1865
1545,1098,1886
1546,1210,1721
1547,1310,1502
1548,1323,1451
1549,1327,1432
1550,1339,1417
1551,1328,1416
1552,1306,1481
1553,1181,1737
1554,1127,1896
1555,1143,1913
1556,1259,1755
1557,1358,1516
1558,1359,1479
1559,1374,1465
1560,1373,1455
1561,1388,1448
1562,1357,1495
1563,1230,1754
1564,1175,1910
1565,1193,1918
1566,1309,1756
1567,1419,1530
1568,1423,1481
1569,1421,1467
1570,1432,1454
1571,1435,1423
1572,1417,1481
1573,1288,1758
1574,1230,1945
1575,1242,1945
1576,1359,1757
1577,1467,1516
1578,1481,1496
1579,1481,1486
1580,1484,1467
1581,1482,1439
1582,1438,1497
1583,1310,1756
1584,1257,1931
1585,1270,1949
1586,1373,1771
1587,1486,1560
1588,1486,1512
1589,1497,1497
1590,1502,1469
1591,1511,1465
1592,1469,1518
1593,1352,1774
1594,1291,1943
1595,1296,1960
1596,1418,1789
1597,1533,1562
1598,1545,1504
1599,1560,1502
1600,1560,1496
1601,1561,1467
1602,1531,1530
1603,1404,1803
1604,1352,1976
1605,1368,1993
1606,1483,1807
1607,1596,1593
1608,1607,1546
1609,1598,1527
1610,1613,1512
1611,1611,1494
1612,1582,1549
1613,1454,1800
1614,1390,1960
1615,1403,1991
1616,1501,1791
1617,1614,1565
1618,1629,1528
1619,1628,1496
1620,1632,1478
1621,1646,1468
1622,1623,1544
1623,1484,1774
1624,1421,1935
1625,1438,1976
1626,1550,1816
1627,1661,1575
1628,1670,1516
1629,1660,1503
1630,1659,1470
1631,1659,1453
1632,1629,1512
1633,1512,1759
1634,1447,1943
1635,1452,1966
1636,1552,1802
1637,1672,1559
1638,1679,1515
1639,1690,1511
1640,1690,1486
1641,1688,1482
1642,1660,1531
1643,1533,1784
1644,1468,1948
1645,1480,1980
1646,1593,1817
1647,1706,1579
1648,1712,1528
1649,1720,1516
1650,1724,1495
1651,1727,1495
1652,1692,1532
1653,1565,1787
1654,1499,1964
1655,1514,1996
1656,1626,1824
1657,1736,1581
1658,1738,1532
1659,1738,1530
1660,1726,1518
1661,1738,1504
1662,1704,1546
1663,1578,1807
1664,1512,1983
1665,1516,2008
1666,1615,1837
1667,1736,1614
1668,1739,1567
1669,1735,1551
1670,1724,1529
1671,1736,1518
1672,1705,1582
1673,1576,1831
1674,1513,2009
1675,1527,2039
1676,1624,1864
1677,1737,1631
1678,1751,1578
1679,1754,1551
1680,1752,1535
1681,1755,1516
1682,1725,1577
1683,1607,1832
1684,1534,1991
1685,1546,2026
1686,1655,1854
1687,1782,1630
1688,1783,1577
1689,1784,1563
1690,1773,1551
1691,1784,1530
1692,1756,1577
1693,1626,1817
1694,1550,2012
1695,1563,2041
1696,1661,1866
1697,1775,1631
1698,1787,1596
1699,1789,1576
1700,1789,1560
1701,1786,1534
1702,1768,1593
1703,1641,1837
1704,1576,2010
1705,1576,2038
1706,1675,1870
1707,1800,1643
1708,1800,1595
1709,1804,1578
1710,1808,1576
1711,1806,1544
1712,1785,1599
1713,1645,1837
1714,1592,2026
1715,1599,2046
1716,1707,1887
1717,1818,1660
1718,1835,1608
1719,1833,1594
1720,1823,1565
1721,1819,1560
1722,1804,1610
1723,1662,1867
1724,1595,2039
1725,1608,2073
1726,1705,1901
1727,1816,1671
1728,1822,1614
1729,1833,1595
1730,1832,1590
1731,1822,1578
1732,1802,1623
1733,1675,1878
1734,1610,2041
1735,1614,2074
1736,1722,1914
1737,1834,1686
1738,1838,1627
1739,1832,1593
1740,1821,1577
1741,1832,1576
1742,1806,1623
1743,1674,1853
1744,1596,2031
1745,1614,2078
1746,1707,1914
1747,1822,1676
1748,1831,1623
1749,1822,1608
1750,1834,1591
1751,1831,1581
1752,1803,1628
1753,1674,1882
1754,1600,2045
1755,1611,2079
1756,1708,1930
1757,1832,1704
1758,1835,1641
1759,1835,1613
1760,1838,1596
1761,1838,1595
1762,1806,1629
1763,1678,1870
1764,1613,2044
1765,1615,2089
1766,1722,1917
1767,1838,1689
1768,1839,1625
1769,1848,1596
1770,1848,1593
1771,1848,1567
1772,1820,1608
1773,1690,1855
1774,1614,2042
1775,1625,2087
1776,1721,1912
1777,1836,1687
1778,1840,1630
1779,1838,1614
1780,1837,1594
1781,1836,1578
1782,1816,1623
1783,1689,1869
1784,1624,2031
1785,1638,2078
1786,1726,1913
1787,1848,1672
1788,1880,1612
1789,1900,1639
1790,1912,1625
1791,1912,1597
1792,1902,1645
1793,1800,1914
1794,1736,2063
1795,1743,2108
1796,1869,1968
1797,2010,1758
1798,2041,1706
1799,2061,1704
1800,2078,1677
1801,2089,1678
1802,2092,1751
1803,1992,2012
1804,1946,2200
1805,1963,2238
1806,2092,2106
1807,2223,1870
1808,2248,1818
1809,2270,1821
1810,2298,1831
1811,2312,1822
1812,2297,1868
1813,2188,2127
1814,2125,2319
1815,2152,2367
1816,2255,2237
1817,2380,2026
1818,2393,1980
1819,2398,1980
1820,2395,1980
1821,2400,1982
1822,2393,2058
1823,2269,2285
1824,2201,2479
1825,2200,2540
1826,2286,2408
1827,2395,2174
1828,2400,2124
1829,2410,2106
1830,2393,2075
1831,2379,2064
1832,2362,2096
1833,2221,2334
1834,2136,2508
1835,2135,2557
1836,2220,2397
1837,2329,2158
1838,2343,2104
1839,2331,2075
1840,2318,2044
1841,2313,2028
1842,2283,2060
1843,2143,2300
1844,2063,2478
1845,2063,2509
1846,2157,2346
1847,2271,2105
1848,2286,2029
1849,2281,1999
1850,2280,1977
1851,2270,1962
1852,2237,1995
1853,2109,2232
1854,2042,2408
1855,2046,2443
1856,2139,2299
1857,2252,2058
1858,2252,1981
1859,2253,1951
1860,2251,1928
1861,2235,1903
1862,2217,1944
1863,2089,2175
1864,2007,2362
1865,2010,2396
1866,2104,2236
1867,2217,1992
1868,2233,1930
1869,2222,1899
1870,2219,1897
1871,2216,1880
1872,2187,1900
1873,2064,2137
1874,1990,2317
1875,1992,2361
1876,2087,2203
1877,2203,1965
1878,2218,1901
1879,2207,1881
1880,2216,1854
1881,2205,1835
1882,2175,1866
1883,2056,2104
1884,1976,2297
1885,1965,2336
1886,2061,2173
1887,2184,1931
1888,2189,1854
1889,2187,1838
1890,2184,1819
1891,2186,1804
1892,2160,1837
1893,2025,2060
1894,1947,2248
1895,1946,2296
1896,2028,2153
1897,2152,1910
1898,2168,1837
1899,2154,1816
1900,2144,1800
1901,2152,1787
1902,2122,1805
1903,1995,2041
1904,1913,2218
1905,1911,2270
1906,1991,2126
1907,2110,1885
1908,2122,1816
1909,2120,1786
1910,2110,1760
1911,2108,1756
1912,2087,1776
1913,1947,2009
1914,1866,2203
1915,1867,2248
1916,1947,2090
1917,2064,1848
1918,2077,1775
1919,2064,1753
1920,2074,1737
1921,2064,1720
1922,2042,1739
1923,1916,1977
1924,1837,2169
1925,1852,2203
1926,1946,2059
1927,2077,1820
1928,2092,1770
1929,2076,1742
1930,2073,1710
1931,2078,1706
1932,2059,1723
1933,1944,1965
1934,1868,2166
1935,1863,2233
1936,1943,2088
1937,2057,1833
1938,2075,1757
1939,2060,1754
1940,2043,1726
1941,2040,1719
1942,2009,1740
1943,1882,1967
1944,1802,2158
1945,1791,2215
1946,1884,2074
1947,1996,1834
1948,1998,1755
1949,1995,1726
1950,1996,1708
1951,1994,1705
1952,1966,1736
1953,1838,1966
1954,1756,2156
1955,1769,2201
1956,1854,2046
1957,1976,1816
1958,1997,1743
1959,1995,1722
1960,1997,1691
1961,1994,1674
1962,1979,1704
1963,1852,1933
1964,1773,2126
1965,1769,2184
1966,1855,2041
1967,1995,1805
1968,2010,1724
1969,2008,1704
1970,2009,1688
1971,2009,1672
1972,1996,1693
1973,1870,1931
1974,1787,2124
1975,1789,2175
1976,1882,2028
1977,1997,1787
1978,2008,1707
1979,2009,1690
1980,2010,1687
1981,2009,1672
1982,1983,1693
1983,1865,1934
1984,1770,2122
1985,1758,2159
1986,1853,2012
1987,1967,1769
1988,1979,1694
1989,1990,1679
1990,1990,1655
1991,1980,1638
1992,1961,1658
1993,1832,1912
1994,1744,2089
1995,1754,2151
1996,1836,1999
1997,1947,1756
1998,1979,1690
1999,1978,1674
2000,1963,1656
2001,1975,1630
2002,1949,1661
2003,1832,1883
2004,1743,2074
2005,1736,2123
2006,1821,1977
2007,1950,1741
2008,1967,1672
2009,1963,1647
2010,1962,1623
2011,1961,1608
2012,1946,1631
2013,1817,1871
2014,1737,2074
2015,1726,2122
2016,1822,1979
2017,1944,1742
2018,1964,1663
2019,1959,1645
2020,1950,1624
2021,1950,1609
2022,1934,1640
2023,1817,1854
2024,1725,2047
2025,1721,2108
2026,1816,1977
2027,1930,1736
2028,1952,1656
2029,1949,1625
2030,1945,1611
2031,1947,1598
2032,1932,1624
2033,1816,1854
2034,1720,2056
2035,1709,2110
2036,1803,1975
2037,1928,1723
2038,1944,1641
2039,1944,1627
2040,1934,1610
2041,1932,1609
2042,1914,1628
2043,1801,1854
2044,1719,2056
2045,1709,2110
2046,1802,1976
2047,1919,1738
2048,1935,1657
2049,1934,1643
2050,1932,1624
2051,1932,1607
2052,1914,1626
2053,1790,1851
2054,1704,2058
2055,1693,2111
2056,1785,1982
2057,1904,1743
2058,1933,1660
2059,1929,1642
2060,1918,1631
2061,1928,1623
2062,1912,1641
2063,1786,1854
2064,1705,2059
2065,1691,2110
2066,1774,1979
2067,1901,1737
2068,1920,1658
2069,1918,1640
2070,1917,1614
2071,1926,1610
2072,1913,1640
2073,1791,1853
2074,1706,2059
2075,1693,2120
2076,1787,1984
2077,1913,1751
2078,1932,1658
2079,1928,1642
2080,1919,1629
2081,1916,1614
2082,1707,2013
2083,1693,2060
2084,1692,2121
2085,1784,1993
2086,1900,1755
2087,1929,1676
2088,1927,1658
2089,1915,1630
2090,1914,1624
2091,1888,1644
2092,1771,1869
2093,1687,2064
2094,1678,2122
2095,1768,1995
2096,1885,1757
2097,1904,1672
2098,1898,1640
2099,1901,1623
2100,1901,1608
2101,1888,1629
2102,1768,1849
2103,1676,2046
2104,1676,2121
2105,1758,1982
2106,1886,1743
2107,1911,1658
2108,1900,1642
2109,1912,1612
2110,1911,1597
2111,1898,1615
2112,1776,1838
2113,1689,2031
2114,1688,2104
2115,1771,1967
2116,1895,1723
2117,1915,1642
2118,1915,1627
2119,1914,1613
2120,1913,1597
2121,1901,1624
2122,1784,1835
2123,1693,2032
2124,1688,2095
2125,1775,1965
2126,1901,1726
2127,1931,1646
2128,1929,1616
2129,1930,1607
2130,1931,1595
2131,1920,1611
2132,1815,1834
2133,1724,2043
2134,1723,2119
2135,1807,1980
2136,1935,1736
2137,1963,1645
2138,1963,1629
2139,1963,1612
2140,1963,1598
2141,1951,1615
2142,1848,1834
2143,1768,2031
2144,1754,2107
2145,1849,1976
2146,1978,1725
2147,2014,1645
2148,2024,1624
2149,2014,1610
2150,2024,1594
2151,2014,1615
2152,1916,1833
2153,1818,2042
2154,1802,2119
2155,1871,1977
2156,1993,1723
2157,1991,1625
2158,1980,1598
2159,1976,1580
2160,1967,1576
2161,1962,1594
2162,1837,1806
2163,1727,1994
2164,1722,2055
2165,1799,1912
2166,1901,1648
2167,1935,1579
2168,1932,1531
2169,1916,1513
2170,1899,1480
2171,1886,1481
2172,1753,1672
2173,1656,1883
2174,1626,1931
2175,1704,1803
2176,1834,1561
2177,1837,1449
2178,1822,1421
2179,1818,1401
2180,1804,1373
2181,1791,1386
2182,1676,1582
2183,1563,1785
2184,1543,1853
2185,1614,1720
2186,1725,1480
2187,1736,1372
2188,1737,1351
2189,1736,1324
2190,1710,1322
2191,1691,1310
2192,1576,1529
2193,1470,1726
2194,1466,1784
2195,1530,1648
2196,1643,1404
2197,1670,1288
2198,1671,1274
2199,1661,1245
2200,1660,1227
2201,1645,1228
2202,1500,1434
2203,1386,1640
2204,1372,1705
2205,1454,1562
2206,1563,1325
2207,1592,1246
2208,1593,1213
2209,1578,1208
2210,1560,1181
2211,1535,1208
2212,1416,1406
2213,1320,1625
2214,1295,1708
2215,1370,1578
2216,1483,1326
2217,1501,1246
2218,1485,1242
2219,1480,1228
2220,1454,1195
2221,1439,1227
2222,1322,1447
2223,1211,1658
2224,1195,1727
2225,1275,1607
2226,1387,1384
2227,1416,1309
2228,1401,1288
2229,1389,1232
2230,1385,1259
2231,1372,1272
2232,1261,1484
2233,1165,1694
2234,1152,1772
2235,1227,1662
2236,1352,1437
2237,1383,1344
2238,1368,1336
2239,1360,1323
2240,1358,1328
2241,1343,1355
2242,1230,1562
2243,1133,1770
2244,1118,1864
2245,1195,1756
2246,1322,1528
2247,1353,1435
2248,1343,1422
2249,1341,1432
2250,1336,1416
2251,1324,1435
2252,1214,1643
2253,1127,1864
2254,1112,1929
2255,1194,1834
2256,1308,1576
2257,1343,1486
2258,1357,1479
2259,1356,1465
2260,1343,1432
2261,1339,1449
2262,1229,1658
2263,1145,1880
2264,1132,1951
2265,1209,1848
2266,1337,1615
2267,1358,1511
2268,1369,1465
2269,1375,1464
2270,1371,1452
2271,1358,1486
2272,1261,1692
2273,1176,1886
2274,1162,1981
2275,1242,1880
2276,1369,1630
2277,1401,1529
2278,1390,1531
2279,1405,1512
2280,1402,1496
2281,1389,1499
2282,1291,1737
2283,1199,1949
2284,1195,2024
2285,1272,1903
2286,1390,1676
2287,1433,1593
2288,1435,1551
2289,1435,1530
2290,1447,1530
2291,1433,1551
2292,1323,1754
2293,1242,1963
2294,1225,2042
2295,1319,1932
2296,1437,1688
2297,1485,1592
2298,1486,1564
2299,1499,1561
2300,1498,1550
2301,1487,1563
2302,1385,1756
2303,1291,1980
2304,1288,2047
2305,1368,1943
2306,1497,1693
2307,1545,1610
2308,1535,1591
2309,1546,1576
2310,1546,1548
2311,1533,1562
2312,1434,1774
2313,1327,2006
2314,1328,2087
2315,1402,1960
2316,1532,1721
2317,1574,1609
2318,1578,1598
2319,1577,1580
2320,1578,1561
2321,1566,1579
2322,1464,1785
2323,1370,1999
2324,1358,2064
2325,1438,1977
2326,1575,1738
2327,1610,1639
2328,1607,1609
2329,1612,1590
2330,1610,1577
2331,1597,1592
2332,1498,1803
2333,1403,2008
2334,1385,2089
2335,1463,1977
2336,1582,1726
2337,1624,1609
2338,1625,1582
2339,1626,1577
2340,1628,1560
2341,1624,1551
2342,1518,1743
2343,1420,1961
2344,1418,2040
2345,1486,1935
2346,1615,1703
2347,1657,1593
2348,1645,1560
2349,1657,1562
2350,1657,1548
2351,1658,1575
2352,1546,1769
2353,1449,1993
2354,1437,2074
2355,1513,1965
2356,1630,1726
2357,1676,1626
2358,1675,1612
2359,1687,1591
2360,1679,1581
2361,1675,1594
2362,1565,1789
2363,1467,1998
2364,1449,2088
2365,1532,1992
2366,1661,1742
2367,1703,1631
2368,1696,1624
2369,1705,1599
2370,1705,1594
2371,1692,1609
2372,1593,1799
2373,1488,2015
2374,1483,2094
2375,1560,1996
2376,1688,1757
2377,1736,1646
2378,1738,1627
2379,1736,1613
2380,1736,1594
2381,1726,1608
2382,1615,1801
2383,1519,2016
2384,1512,2104
2385,1582,1994
2386,1721,1751
2387,1755,1640
2388,1742,1612
2389,1742,1599
2390,1750,1576
2391,1742,1580
2392,1640,1770
2393,1535,1998
2394,1527,2072
2395,1598,1965
2396,1722,1724
2397,1759,1624
2398,1768,1595
2399,1770,1579
2400,1773,1565
2401,1768,1575
2402,1658,1772
2403,1561,1992
2404,1548,2072
2405,1611,1967
2406,1737,1726
2407,1775,1610
2408,1784,1596
2409,1774,1565
2410,1786,1563
2411,1772,1577
2412,1674,1770
2413,1576,1992
2414,1561,2077
2415,1624,1991
2416,1753,1754
2417,1800,1648
2418,1789,1614
2419,1784,1595
2420,1783,1576
2421,1771,1582
2422,1662,1784
2423,1565,1999
2424,1561,2104
2425,1625,2014
2426,1755,1772
2427,1787,1660
2428,1791,1657
2429,1791,1625
2430,1787,1610
2431,1784,1631
2432,1676,1816
2433,1574,2030
2434,1564,2122
2435,1629,2028
2436,1758,1786
2437,1807,1675
2438,1804,1657
2439,1804,1626
2440,1803,1612
2441,1803,1622
2442,1704,1814
2443,1609,2031
2444,1594,2125
2445,1662,2012
2446,1785,1785
2447,1832,1661
2448,1832,1648
2449,1833,1615
2450,1833,1593
2451,1819,1608
2452,1723,1800
2453,1613,2014
2454,1608,2105
2455,1676,2008
2456,1816,1771
2457,1850,1641
2458,1848,1631
2459,1848,1614
2460,1838,1594
2461,1837,1609
2462,1737,1800
2463,1640,2015
2464,1625,2090
2465,1695,1999
2466,1820,1784
2467,1869,1658
2468,1864,1641
2469,1851,1627
2470,1853,1610
2471,1848,1613
2472,1742,1813
2473,1639,2029
2474,1626,2106
2475,1709,2011
2476,1821,1757
2477,1867,1631
2478,1896,1624
2479,1918,1624
2480,1918,1616
2481,1929,1639
2482,1851,1831
2483,1758,2032
2484,1771,2119
2485,1856,2045
2486,2008,1822
2487,2088,1679
2488,2110,1672
2489,2123,1674
2490,2141,1662
2491,2154,1687
2492,2087,1880
2493,2008,2123
2494,2008,2214
2495,2089,2122
2496,2237,1897
2497,2313,1800
2498,2329,1783
2499,2342,1769
2500,2368,1743
2501,2377,1756
2502,2286,1962
2503,2186,2188
2504,2185,2287
2505,2271,2216
2506,2415,1995
2507,2471,1896
2508,2460,1886
2509,2473,1872
2510,2476,1871
2511,2473,1885
2512,2379,2063
2513,2284,2300
2514,2271,2394
2515,2348,2328
2516,2459,2090
2517,2506,1965
2518,2505,1943
2519,2506,1934
2520,2505,1946
2521,2478,1945
2522,2380,2121
2523,2284,2361
2524,2251,2458
2525,2310,2380
2526,2411,2142
2527,2441,2008
2528,2440,1982
2529,2427,1963
2530,2410,1947
2531,2383,1963
2532,2281,2155
2533,2168,2381
2534,2138,2459
2535,2189,2376
2536,2303,2138
2537,2345,2009
2538,2334,1992
2539,2327,1966
2540,2319,1950
2541,2312,1960
2542,2207,2137
2543,2094,2360
2544,2064,2430
2545,2123,2348
2546,2239,2111
2547,2280,1977
2548,2270,1943
2549,2278,1927
2550,2255,1910
2551,2248,1903
2552,2142,2078
2553,2028,2300
2554,1998,2384
2555,2057,2301
2556,2173,2062
2557,2222,1933
2558,2218,1901
2559,2207,1881
2560,2205,1863
2561,2198,1866
2562,2105,2043
2563,1982,2267
2564,1963,2360
2565,2024,2280
2566,2141,2043
2567,2190,1913
2568,2184,1886
2569,2184,1866
2570,2174,1847
2571,2170,1850
2572,2073,2012
2573,1962,2237
2574,1932,2330
2575,1994,2250
2576,2109,2025
2577,2157,1896
2578,2154,1867
2579,2152,1847
2580,2154,1824
2581,2142,1836
2582,2041,1999
2583,1928,2230
2584,1899,2312
2585,1963,2233
2586,2077,1998
2587,2122,1864
2588,2110,1838
2589,2108,1819
2590,2105,1799
2591,2094,1801
2592,1999,1961
2593,1887,2191
2594,1864,2282
2595,1915,2202
2596,2030,1963
2597,2090,1831
2598,2088,1802
2599,2090,1787
2600,2088,1775
2601,2080,1784
2602,1982,1946
2603,1870,2173
2604,1848,2255
2605,1900,2173
2606,2027,1946
2607,2087,1816
2608,2078,1788
2609,2077,1759
2610,2075,1751
2611,2063,1754
2612,1967,1919
2613,1852,2155
2614,1820,2248
2615,1885,2172
2616,2011,1932
2617,2062,1789
2618,2059,1772
2619,2059,1752
2620,2058,1738
2621,2044,1741
2622,1947,1916
2623,1836,2153
2624,1815,2248
2625,1871,2159
2626,1993,1916
2627,2044,1776
2628,2042,1755
2629,2029,1726
2630,2031,1707
2631,2024,1709
2632,1930,1884
2633,1817,2122
2634,1787,2202
2635,1851,2124
2636,1975,1896
2637,2024,1755
2638,2008,1723
2639,2013,1710
2640,2014,1692
2641,2013,1694
2642,1917,1866
2643,1804,2105
2644,1783,2200
2645,1837,2123
2646,1961,1896
2647,2007,1751
2648,2006,1724
2649,1992,1707
2650,1993,1691
2651,1978,1689
2652,1883,1839
2653,1773,2076
2654,1739,2172
2655,1802,2107
2656,1927,1883
2657,1978,1737
2658,1976,1707
2659,1965,1687
2660,1965,1674
2661,1964,1678
2662,1867,1834
2663,1756,2064
2664,1725,2170
2665,1773,2095
2666,1900,1871
2667,1951,1725
2668,1950,1693
2669,1948,1676
2670,1935,1655
2671,1928,1657
2672,1834,1815
2673,1723,2045
2674,1702,2140
2675,1755,2078
2676,1882,1848
2677,1933,1704
2678,1933,1676
2679,1934,1663
2680,1927,1647
2681,1915,1657
2682,1831,1815
2683,1720,2048
2684,1694,2154
2685,1742,2079
2686,1867,1849
2687,1918,1706
2688,1915,1673
2689,1918,1663
2690,1912,1640
2691,1911,1640
2692,1823,1792
2693,1706,2026
2694,1687,2127
2695,1739,2063
2696,1864,1837
2697,1927,1690
2698,1919,1672
2699,1920,1646
2700,1917,1629
2701,1915,1639
2702,1821,1791
2703,1708,2039
2704,1678,2128
2705,1736,2061
2706,1851,1832
2707,1913,1688
2708,1917,1664
2709,1912,1643
2710,1902,1625
2711,1895,1624
2712,1807,1775
2713,1705,2024
2714,1672,2125
2715,1725,2058
2716,1854,1834
2717,1916,1688
2718,1915,1661
2719,1913,1643
2720,1917,1631
2721,1914,1631
2722,1820,1775
2723,1707,2013
2724,1677,2124
2725,1725,2056
2726,1849,1833
2727,1913,1676
2728,1903,1644
2729,1912,1639
2730,1913,1629
2731,1901,1629
2732,1816,1784
2733,1704,2023
2734,1676,2120
2735,1723,2059
2736,1851,1839
2737,1916,1694
2738,1915,1662
2739,1902,1638
2740,1902,1614
2741,1902,1627
2742,1822,1774
2743,1707,2014
2744,1680,2123
2745,1739,2064
2746,1865,1836
2747,1928,1678
2748,1928,1662
2749,1928,1646
2750,1919,1629
2751,1915,1627
2752,1824,1773
2753,1710,2016
2754,1676,2121
2755,1740,2059
2756,1864,1820
2757,1918,1672
2758,1928,1656
2759,1930,1627
2760,1929,1608
2761,1917,1609
2762,1840,1754
2763,1740,1993
2764,1709,2091
2765,1768,2039
2766,1881,1804
2767,1961,1659
2768,1962,1644
2769,1963,1625
2770,1967,1598
2771,1964,1608
2772,1884,1768
2773,1783,2015
2774,1743,2120
2775,1803,2060
2776,1931,1832
2777,1999,1671
2778,2009,1645
2779,2012,1630
2780,2013,1609
2781,1999,1607
2782,1931,1754
2783,1819,2007
2784,1800,2111
2785,1850,2061
2786,1961,1803
2787,1995,1628
2788,1965,1612
2789,1948,1592
2790,1933,1565
2791,1919,1566
2792,1807,1704
2793,1674,1935
2794,1644,2029
2795,1695,1951
2796,1804,1710
2797,1853,1559
2798,1832,1502
2799,1821,1483
2800,1821,1448
2801,1800,1453
2802,1706,1579
2803,1579,1820
2804,1531,1912
2805,1576,1867
2806,1690,1612
2807,1741,1438
2808,1720,1415
2809,1707,1384
2810,1693,1356
2811,1690,1353
2812,1593,1464
2813,1468,1709
2814,1420,1821
2815,1464,1771
2816,1582,1516
2817,1643,1343
2818,1626,1309
2819,1610,1293
2820,1594,1262
2821,1583,1272
2822,1485,1389
2823,1356,1626
2824,1307,1721
2825,1355,1677
2826,1480,1432
2827,1543,1277
2828,1532,1244
2829,1516,1212
2830,1503,1208
2831,1487,1207
2832,1400,1356
2833,1275,1580
2834,1245,1690
2835,1290,1629
2836,1402,1418
2837,1453,1255
2838,1447,1216
2839,1437,1195
2840,1422,1180
2841,1404,1190
2842,1319,1322
2843,1199,1563
2844,1177,1671
2845,1223,1616
2846,1326,1405
2847,1385,1242
2848,1375,1213
2849,1373,1197
2850,1369,1195
2851,1369,1207
2852,1294,1312
2853,1167,1560
2854,1132,1705
2855,1183,1645
2856,1304,1416
2857,1372,1264
2858,1367,1255
2859,1359,1247
2860,1370,1239
2861,1358,1215
2862,1288,1358
2863,1176,1628
2864,1132,1738
2865,1177,1692
2866,1308,1496
2867,1385,1311
2868,1375,1308
2869,1387,1291
2870,1390,1289
2871,1389,1272
2872,1304,1431
2873,1181,1644
2874,1160,1786
2875,1211,1737
2876,1324,1495
2877,1402,1341
2878,1402,1323
2879,1408,1323
2880,1417,1293
2881,1403,1337
2882,1338,1468
2883,1227,1694
2884,1196,1805
2885,1243,1783
2886,1356,1559
2887,1437,1400
2888,1439,1375
2889,1439,1360
2890,1436,1340
2891,1434,1354
2892,1371,1471
2893,1263,1737
2894,1239,1835
2895,1275,1806
2896,1404,1592
2897,1480,1415
2898,1468,1400
2899,1469,1388
2900,1480,1357
2901,1479,1357
2902,1405,1514
2903,1290,1767
2904,1261,1869
2905,1308,1822
2906,1437,1610
2907,1512,1454
2908,1516,1437
2909,1528,1419
2910,1529,1403
2911,1519,1418
2912,1452,1559
2913,1337,1808
2914,1303,1912
2915,1342,1882
2916,1467,1676
2917,1545,1511
2918,1547,1481
2919,1544,1480
2920,1547,1454
2921,1548,1464
2922,1471,1592
2923,1359,1851
2924,1338,1960
2925,1386,1913
2926,1512,1692
2927,1595,1519
2928,1593,1500
2929,1597,1487
2930,1596,1468
2931,1594,1478
2932,1518,1595
2933,1406,1850
2934,1373,1976
2935,1418,1929
2936,1533,1708
2937,1614,1544
2938,1623,1502
2939,1624,1485
2940,1624,1470
2941,1614,1479
2942,1564,1612
2943,1448,1855
2944,1404,1965
2945,1449,1931
2946,1583,1722
2947,1658,1551
2948,1660,1519
2949,1657,1504
2950,1660,1486
2951,1645,1486
2952,1582,1613
2953,1470,1855
2954,1437,1979
2955,1484,1946
2956,1608,1736
2957,1689,1575
2958,1689,1531
2959,1693,1528
2960,1695,1519
2961,1693,1529
2962,1626,1628
2963,1502,1872
2964,1468,1996
2965,1515,1978
2966,1631,1753
2967,1710,1576
2968,1721,1532
2969,1721,1534
2970,1723,1518
2971,1720,1503
2972,1644,1641
2973,1528,1899
2974,1487,2013
2975,1534,1978
2976,1658,1767
2977,1740,1591
2978,1737,1564
2979,1736,1551
2980,1737,1534
2981,1726,1532
2982,1663,1673
2983,1550,1931
2984,1503,2042
2985,1550,2009
2986,1676,1802
2987,1768,1627
2988,1756,1592
2989,1755,1565
2990,1757,1550
2991,1759,1546
2992,1691,1662
2993,1567,1919
2994,1531,2040
2995,1582,1999
2996,1695,1790
2997,1770,1613
2998,1773,1584
2999,1784,1579
3000,1785,1561
3001,1774,1559
3002,1711,1675
3003,1593,1929
3004,1547,2047
3005,1596,2025
3006,1710,1816
3007,1791,1628
3008,1787,1609
3009,1787,1583
3010,1785,1576
3011,1786,1565
3012,1724,1677
3013,1595,1930
3014,1550,2047
3015,1595,2026
3016,1722,1818
3017,1800,1640
3018,1790,1610
3019,1789,1581
3020,1791,1562
3021,1782,1563
3022,1726,1680
3023,1596,1931
3024,1563,2058
3025,1608,2029
3026,1721,1822
3027,1802,1631
3028,1802,1613
3029,1792,1598
3030,1801,1579
3031,1801,1592
3032,1735,1692
3033,1600,1946
3034,1564,2073
3035,1609,2047
3036,1720,1832
3037,1804,1647
3038,1816,1613
3039,1815,1600
3040,1818,1592
3041,1808,1591
3042,1752,1695
3043,1626,1948
3044,1591,2078
3045,1626,2059
3046,1741,1838
3047,1823,1660
3048,1820,1630
3049,1823,1612
3050,1821,1596
3051,1821,1606
3052,1767,1708
3053,1631,1960
3054,1596,2078
3055,1627,2061
3056,1753,1856
3057,1822,1664
3058,1822,1628
3059,1832,1609
3060,1833,1597
3061,1824,1598
3062,1769,1708
3063,1643,1961
3064,1607,2077
3065,1630,2063
3066,1756,1852
3067,1839,1671
3068,1836,1630
3069,1835,1614
3070,1834,1608
3071,1832,1609
3072,1774,1711
3073,1643,1961
3074,1607,2089
3075,1638,2072
3076,1757,1855
3077,1838,1662
3078,1838,1639
3079,1840,1610
3080,1851,1593
3081,1641,2009
3082,1611,2089
3083,1645,2063
3084,1768,1866
3085,1847,1677
3086,1849,1645
3087,1838,1625
3088,1848,1610
3089,1836,1607
3090,1775,1722
3091,1657,1960
3092,1611,2088
3093,1643,2062
3094,1767,1853
3095,1838,1662
3096,1838,1642
3097,1837,1624
3098,1835,1598
3099,1831,1607
3100,1769,1718
3101,1644,1962
3102,1607,2090
3103,1643,2076
3104,1759,1855
3105,1850,1660
3106,1849,1641
3107,1848,1615
3108,1848,1597
3109,1849,1596
3110,1784,1704
3111,1660,1960
3112,1624,2076
3113,1648,2063
3114,1768,1850
3115,1849,1662
3116,1851,1626
3117,1854,1607
3118,1853,1583
3119,1850,1591
3120,1787,1704
3121,1662,1942
3122,1625,2075
3123,1659,2056
3124,1782,1848
3125,1871,1657
3126,1870,1614
3127,1869,1614
3128,1868,1596
3129,1865,1580
3130,1802,1691
3131,1679,1944
3132,1644,2073
3133,1677,2058
3134,1801,1854
3135,1885,1663
3136,1870,1641
3137,1865,1627
3138,1869,1608
3139,1868,1609
3140,1805,1710
3141,1679,1950
3142,1655,2089
3143,1675,2062
3144,1788,1853
3145,1896,1645
3146,1917,1644
3147,1946,1630
3148,1944,1598
3149,1959,1607
3150,1914,1720
3151,1804,1975
3152,1785,2105
3153,1834,2091
3154,1982,1916
3155,2092,1736
3156,2092,1678
3157,2118,1692
3158,2152,1690
3159,2171,1691
3160,2123,1833
3161,2011,2106
3162,1991,2235
3163,2045,2231
3164,2184,2024
3165,2283,1838
3166,2299,1822
3167,2316,1821
3168,2336,1800
3169,2345,1821
3170,2299,1948
3171,2202,2221
3172,2159,2358
3173,2189,2350
3174,2312,2172
3175,2393,1978
3176,2395,1933
3177,2413,1927
3178,2424,1916
3179,2410,1929
3180,2346,2044
3181,2231,2296
3182,2185,2412
3183,2216,2414
3184,2318,2237
3185,2393,2045
3186,2393,2009
3187,2392,1984
3188,2375,1966
3189,2345,1959
3190,2272,2056
3191,2140,2313
3192,2089,2441
3193,2107,2431
3194,2207,2223
3195,2296,2012
3196,2296,1976
3197,2283,1948
3198,2280,1933
3199,2269,1927
3200,2220,2015
3201,2087,2264
3202,2039,2391
3203,2058,2376
3204,2170,2169
3205,2264,1960
3206,2254,1919
3207,2251,1903
3208,2250,1885
3209,2249,1881
3210,2188,1974
3211,2064,2207
3212,2012,2344
3213,2043,2332
3214,2156,2128
3215,2253,1914
3216,2249,1882
3217,2250,1867
3218,2238,1848
3219,2236,1836
3220,2176,1918
3221,2057,2169
3222,1997,2295
3223,2012,2270
3224,2136,2064
3225,2220,1864
3226,2216,1822
3227,2202,1803
3228,2200,1788
3229,2191,1776
3230,2141,1885
3231,2013,2128
3232,1963,2264
3233,1980,2251
3234,2094,2055
3235,2182,1839
3236,2173,1816
3237,2172,1802
3238,2170,1775
3239,2157,1774
3240,2094,1864
3241,1977,2119
3242,1931,2249
3243,1951,2239
3244,2063,2040
3245,2157,1834
3246,2168,1801
3247,2157,1776
3248,2155,1769
3249,2153,1757
3250,2093,1852
3251,1959,2093
3252,1902,2233
3253,1930,2236
3254,2045,2041
3255,2142,1834
3256,2139,1803
3257,2136,1773
3258,2137,1757
3259,2124,1756
3260,2060,1838
3261,1932,2091
3262,1880,2224
3263,1901,2220
3264,2011,2011
3265,2104,1816
3266,2094,1775
3267,2091,1753
3268,2092,1739
3269,2076,1725
3270,2026,1816
3271,1900,2063
3272,1839,2201
3273,1867,2200
3274,1979,2008
3275,2076,1799
3276,2075,1759
3277,2073,1743
3278,2062,1720
3279,2058,1709
3280,1999,1804
3281,1879,2040
3282,1820,2186
3283,1837,2185
3284,1947,1980
3285,2042,1771
3286,2041,1738
3287,2040,1712
3288,2041,1678
3289,2029,1678
3290,1977,1771
3291,1850,2010
3292,1805,2154
3293,1823,2157
3294,1947,1962
3295,2029,1750
3296,2029,1711
3297,2027,1706
3298,2028,1675
3299,2024,1673
3300,1966,1768
3301,1835,2007
3302,1785,2141
3303,1807,2142
3304,1918,1947
3305,2010,1738
3306,2008,1705
3307,1998,1679
3308,1996,1659
3309,2008,1647
3310,1959,1756
3311,1834,2007
3312,1784,2136
3313,1806,2128
3314,1917,1930
3315,2015,1722
3316,2011,1707
3317,2009,1721
3318,1994,1720
3319,1980,1721
3320,1933,1792
3321,1816,2056
3322,1754,2201
3323,1771,2208
3324,1872,2008
3325,1965,1789
3326,1966,1758
3327,1966,1757
3328,1977,1743
3329,1965,1740
3330,1912,1822
3331,1774,2061
3332,1723,2202
3333,1740,2204
3334,1852,1999
3335,1952,1802
3336,1960,1767
3337,1950,1752
3338,1948,1725
3339,1934,1706
3340,1887,1799
3341,1758,2043
3342,1707,2185
3343,1736,2186
3344,1836,1992
3345,1943,1786
3346,1933,1753
3347,1944,1722
3348,1934,1693
3349,1927,1675
3350,1881,1759
3351,1754,2009
3352,1694,2155
3353,1720,2167
3354,1822,1960
3355,1915,1740
3356,1916,1719
3357,1914,1691
3358,1918,1677
3359,1915,1674
3360,1866,1753
3361,1728,1995
3362,1673,2154
3363,1704,2159
3364,1804,1963
3365,1911,1757
3366,1918,1711
3367,1900,1692
3368,1904,1673
3369,1900,1662
3370,1854,1741
3371,1725,1995
3372,1676,2138
3373,1693,2141
3374,1806,1951
3375,1911,1735
3376,1912,1691
3377,1913,1662
3378,1912,1662
3379,1900,1645
3380,1851,1721
3381,1727,1965
3382,1679,2108
3383,1691,2122
3384,1803,1931
3385,1902,1710
3386,1903,1661
3387,1902,1642
3388,1901,1628
3389,1899,1626
3390,1850,1709
3391,1725,1950
3392,1673,2091
3393,1692,2103
3394,1805,1917
3395,1902,1704
3396,1902,1661
3397,1899,1656
3398,1900,1631
3399,1895,1624
3400,1847,1708
3401,1721,1948
3402,1663,2095
3403,1692,2105
3404,1801,1927
3405,1912,1710
3406,1918,1677
3407,1913,1658
3408,1912,1642
3409,1902,1642
3410,1865,1711
3411,1742,1967
3412,1689,2121
3413,1706,2128
3414,1806,1943
3415,1911,1712
3416,1912,1675
3417,1912,1658
3418,1903,1644
3419,1900,1641
3420,1864,1707
3421,1726,1947
3422,1675,2094
3423,1690,2119
3424,1801,1928
3425,1901,1718
3426,1910,1674
3427,1914,1656
3428,1913,1631
3429,1912,1627
3430,1869,1694
3431,1740,1946
3432,1676,2094
3433,1692,2105
3434,1801,1918
3435,1904,1707
3436,1912,1671
3437,1914,1658
3438,1912,1640
3439,1912,1627
3440,1864,1704
3441,1739,1943
3442,1675,2089
3443,1690,2120
3444,1805,1931
3445,1914,1707
3446,1916,1664
3447,1918,1646
3448,1919,1631
3449,1916,1623
3450,1883,1693
3451,1755,1945
3452,1694,2092
3453,1710,2118
3454,1822,1930
3455,1934,1708
3456,1945,1662
3457,1946,1643
3458,1945,1643
3459,1935,1627
3460,1902,1694
3461,1772,1943
3462,1720,2093
3463,1727,2107
3464,1848,1929
3465,1960,1705
3466,1960,1658
3467,1963,1642
3468,1966,1628
3469,1966,1625
3470,1928,1689
3471,1804,1930
3472,1741,2090
3473,1758,2112
3474,1882,1930
3475,1992,1705
3476,1995,1660
3477,1996,1643
3478,1998,1628
3479,2000,1624
3480,1965,1689
3481,1833,1929
3482,1784,2090
3483,1800,2109
3484,1899,1930
3485,1993,1701
3486,1976,1630
3487,1943,1623
3488,1930,1581
3489,1915,1564
3490,1865,1628
3491,1712,1871
3492,1640,2028
3493,1642,2040
3494,1724,1838
3495,1823,1608
3496,1817,1565
3497,1800,1535
3498,1784,1496
3499,1768,1498
3500,1709,1560
3501,1561,1771
3502,1482,1929
3503,1471,1929
3504,1561,1740
3505,1660,1503
3506,1647,1479
3507,1641,1420
3508,1624,1402
3509,1613,1372
3510,1578,1453
3511,1436,1689
3512,1369,1853
3513,1372,1868
3514,1453,1673
3515,1534,1449
3516,1532,1406
3517,1529,1384
3518,1529,1353
3519,1503,1319
3520,1467,1401
3521,1336,1640
3522,1259,1799
3523,1261,1833
3524,1366,1660
3525,1454,1424
3526,1449,1374
3527,1434,1343
3528,1420,1340
3529,1433,1336
3530,1388,1400
3531,1246,1628
3532,1193,1787
3533,1195,1790
3534,1289,1626
3535,1390,1401
3536,1402,1342
3537,1400,1323
3538,1399,1338
3539,1385,1323
3540,1338,1383
3541,1209,1645
3542,1144,1806
3543,1161,1833
3544,1262,1663
3545,1388,1432
3546,1400,1399
3547,1388,1385
3548,1376,1374
3549,1368,1356
3550,1338,1438
3551,1214,1686
3552,1150,1835
3553,1150,1883
3554,1246,1705
3555,1358,1469
3556,1371,1433
3557,1356,1403
3558,1356,1386
3559,1354,1375
3560,1336,1436
3561,1207,1679
3562,1135,1866
3563,1149,1902
3564,1260,1712
3565,1367,1483
3566,1387,1451
3567,1388,1420
3568,1375,1417
3569,1385,1405
3570,1342,1437
3571,1227,1691
3572,1165,1870
3573,1177,1916
3574,1279,1740
3575,1398,1513
3576,1404,1468
3577,1403,1465
3578,1403,1449
3579,1415,1450
3580,1386,1504
3581,1248,1770
3582,1194,1928
3583,1212,1949
3584,1323,1774
3585,1436,1548
3586,1447,1498
3587,1449,1485
3588,1449,1482
3589,1449,1468
3590,1421,1544
3591,1305,1800
3592,1243,1963
3593,1260,1994
3594,1369,1821
3595,1482,1594
3596,1497,1545
3597,1499,1528
3598,1500,1519
3599,1513,1512
3600,1485,1565
3601,1357,1801
3602,1304,1961
3603,1320,1994
3604,1432,1833
3605,1533,1595
3606,1550,1547
3607,1551,1527
3608,1548,1513
3609,1551,1497
3610,1519,1560
3611,1403,1803
3612,1339,1964
3613,1344,1993
3614,1452,1817
3615,1580,1593
3616,1591,1549
3617,1592,1529
3618,1594,1511
3619,1598,1495
3620,1579,1561
3621,1451,1803
3622,1387,1967
3623,1403,1995
3624,1499,1834
3625,1625,1597
3626,1631,1548
3627,1641,1529
3628,1641,1517
3629,1641,1513
3630,1611,1567
3631,1484,1817
3632,1432,1982
3633,1437,2011
3634,1547,1849
3635,1660,1625
3636,1673,1576
3637,1673,1546
3638,1672,1531
3639,1673,1513
3640,1631,1566
3641,1513,1818
3642,1453,1998
3643,1467,2025
3644,1564,1863
3645,1676,1629
3646,1690,1575
3647,1692,1547
3648,1704,1532
3649,1705,1529
3650,1672,1578
3651,1533,1833
3652,1468,1998
3653,1468,2028
3654,1566,1869
3655,1677,1645
3656,1693,1592
3657,1691,1551
3658,1695,1546
3659,1694,1535
3660,1674,1595
3661,1544,1839
3662,1479,2014
3663,1487,2041
3664,1598,1878
3665,1711,1657
3666,1720,1610
3667,1710,1590
3668,1711,1578
3669,1720,1560
3670,1692,1611
3671,1560,1866
3672,1495,2046
3673,1500,2077
3674,1607,1902
3675,1722,1679
3676,1736,1627
3677,1727,1608
3678,1725,1582
3679,1721,1584
3680,1694,1630
3681,1576,1866
3682,1500,2042
3683,1515,2087
3684,1616,1911
3685,1726,1672
3686,1740,1625
3687,1752,1599
3688,1741,1581
3689,1754,1581
3690,1725,1615
3691,1594,1864
3692,1527,2031
3693,1531,2074
3694,1640,1913
3695,1756,1678
3696,1768,1626
3697,1768,1596
3698,1768,1577
3699,1771,1580
3700,1738,1626
3701,1613,1868
3702,1534,2041
3703,1546,2078
3704,1642,1916
3705,1760,1690
3706,1774,1627
3707,1772,1599
3708,1774,1594
3709,1774,1581
3710,1754,1626
3711,1627,1863
3712,1561,2043
3713,1565,2078
3714,1662,1915
3715,1774,1674
3716,1786,1623
3717,1787,1600
3718,1790,1578
3719,1790,1564
3720,1774,1612
3721,1655,1851
3722,1578,2040
3723,1581,2090
3724,1689,1914
3725,1803,1677
3726,1802,1614
3727,1806,1608
3728,1808,1594
3729,1807,1582
3730,1785,1613
3731,1656,1862
3732,1579,2041
3733,1583,2064
3734,1690,1916
3735,1802,1675
3736,1819,1624
3737,1807,1598
3738,1808,1584
3739,1815,1581
3740,1787,1616
3741,1661,1865
3742,1593,2041
3743,1595,2077
3744,1693,1931
3745,1806,1691
3746,1830,1627
3747,1822,1609
3748,1821,1599
3749,1821,1583
3750,1790,1630
3751,1662,1868
3752,1597,2046
3753,1599,2088
3754,1694,1927
3755,1818,1690
3756,1831,1630
3757,1820,1606
3758,1817,1580
3759,1819,1577
3760,1800,1627
3761,1675,1864
3762,1598,2028
3763,1598,2077
3764,1694,1919
3765,1821,1687
3766,1834,1624
3767,1822,1599
3768,1819,1592
3769,1819,1583
3770,1789,1641
3771,1676,1881
3772,1608,2058
3773,1599,2105
3774,1694,1948
3775,1806,1709
3776,1823,1639
3777,1834,1624
3778,1822,1599
3779,1833,1594
3780,1805,1628
3781,1679,1869
3782,1611,2058
3783,1611,2104
3784,1711,1951
3785,1835,1718
3786,1848,1656
3787,1849,1625
3788,1848,1610
3789,1851,1609
3790,1822,1640
3791,1695,1880
3792,1627,2058
3793,1628,2096
3794,1722,1947
3795,1839,1710
3796,1864,1641
3797,1853,1615
3798,1854,1599
3799,1863,1592
3800,1835,1627
3801,1709,1868
3802,1639,2059
3803,1632,2093
3804,1735,1948
3805,1839,1706
3806,1863,1646
3807,1855,1629
3808,1864,1612
3809,1855,1599
3810,1837,1644
3811,1707,1883
3812,1630,2072
3813,1640,2122
3814,1736,1962
3815,1851,1706
3816,1869,1645
3817,1866,1625
3818,1855,1613
3819,1865,1596
3820,1839,1640
3821,1711,1865
3822,1631,2048
3823,1641,2092
3824,1743,1933
3825,1855,1693
3826,1856,1630
3827,1868,1596
3828,1897,1598
3829,1903,1627
3830,1897,1657
3831,1775,1884
3832,1709,2079
3833,1734,2120
3834,1840,1966
3835,1993,1739
3836,2026,1680
3837,2057,1679
3838,2062,1672
3839,2076,1672
3840,2063,1712
3841,1976,1960
3842,1917,2153
3843,1928,2205
3844,2041,2062
3845,2173,1849
3846,2208,1818
3847,2219,1816
3848,2231,1789
3849,2248,1772
3850,2248,1803
3851,2140,2060
3852,2074,2287
3853,2077,2346
3854,2188,2200
3855,2331,1965
3856,2351,1918
3857,2365,1928
3858,2382,1904
3859,2394,1883
3860,2367,1930
3861,2239,2184
3862,2159,2382
3863,2158,2431
3864,2254,2298
3865,2380,2062
3866,2408,1997
3867,2394,1991
3868,2392,1978
3869,2392,1960
3870,2359,1968
3871,2222,2188
3872,2136,2377
3873,2120,2428
3874,2207,2286
3875,2329,2047
3876,2346,1979
3877,2333,1961
3878,2328,1945
3879,2328,1933
3880,2301,1975
3881,2171,2203
3882,2090,2393
3883,2087,2439
3884,2170,2282
3885,2286,2028
3886,2312,1951
3887,2300,1918
3888,2294,1898
3889,2295,1880
3890,2264,1913
3891,2138,2142
3892,2056,2317
3893,2045,2366
3894,2127,2219
3895,2239,1979
3896,2254,1902
3897,2253,1880
3898,2249,1853
3899,2248,1836
3900,2219,1855
3901,2091,2079
3902,2007,2266
3903,1999,2318
3904,2093,2172
3905,2206,1928
3906,2220,1839
3907,2219,1824
3908,2205,1804
3909,2201,1800
3910,2184,1834
3911,2062,2058
3912,1966,2235
3913,1962,2281
3914,2047,2141
3915,2172,1896
3916,2188,1817
3917,2186,1790
3918,2173,1774
3919,2170,1768
3920,2154,1786
3921,2029,2008
3922,1945,2203
3923,1936,2263
3924,2027,2121
3925,2136,1864
3926,2154,1787
3927,2152,1771
3928,2142,1753
3929,2141,1753
3930,2123,1770
3931,1999,1982
3932,1917,2175
3933,1916,2239
3934,1997,2095
3935,2108,1852
3936,2125,1783
3937,2120,1755
3938,2111,1737
3939,2110,1720
3940,2088,1739
3941,1961,1963
3942,1869,2153
3943,1865,2202
3944,1950,2062
3945,2088,1823
3946,2121,1742
3947,2110,1723
3948,2109,1719
3949,2103,1720
3950,2064,1739
3951,1960,1979
3952,1871,2152
3953,1865,2201
3954,1950,2077
3955,2059,1838
3956,2061,1756
3957,2061,1744
3958,2059,1726
3959,2058,1722
3960,2028,1752
3961,1912,1982
3962,1819,2183
3963,1816,2236
3964,1898,2094
3965,2013,1848
3966,2040,1768
3967,2039,1743
3968,2039,1736
3969,2041,1711
3970,2013,1752
3971,1894,1978
3972,1805,2167
3973,1804,2215
3974,1897,2064
3975,2023,1822
3976,2043,1757
3977,2042,1735
3978,2043,1711
3979,2040,1704
3980,2014,1721
3981,1900,1945
3982,1816,2140
3983,1805,2203
3984,1897,2073
3985,2013,1817
3986,2026,1737
3987,2026,1710
3988,2024,1690
3989,2029,1689
3990,1998,1708
3991,1881,1930
3992,1802,2124
3993,1792,2190
3994,1882,2047
3995,2008,1804
3996,2028,1710
3997,2024,1695
3998,2013,1679
3999,2010,1663
4000,1994,1696
4001,1879,1916
4002,1783,2110
4003,1774,2174
4004,1864,2040
4005,1980,1802
4006,1995,1724
4007,1994,1694
4008,1981,1664
4009,1980,1656
4010,1966,1677
4011,1853,1902
4012,1758,2095
4013,1753,2153
4014,1837,2025
4015,1961,1783
4016,1979,1693
4017,1978,1687
4018,1977,1661
4019,1976,1641
4020,1950,1662
4021,1833,1885
4022,1742,2092
4023,1742,2153
4024,1822,2025
4025,1950,1788
4026,1976,1704
4027,1976,1676
4028,1967,1655
4029,1977,1640
4030,1963,1672
4031,1836,1887
4032,1743,2092
4033,1726,2142
4034,1818,2015
4035,1948,1785
4036,1965,1703
4037,1960,1679
4038,1960,1658
4039,1952,1632
4040,1933,1658
4041,1821,1884
4042,1739,2093
4043,1725,2154
4044,1805,2014
4045,1916,1770
4046,1948,1694
4047,1949,1673
4048,1946,1655
4049,1933,1640
4050,1917,1663
4051,1800,1871
4052,1705,2074
4053,1694,2140
4054,1788,2023
4055,1911,1770
4056,1928,1689
4057,1931,1663
4058,1929,1640
4059,1917,1629
4060,1902,1660
4061,1784,1868
4062,1692,2063
4063,1686,2136
4064,1768,1999
4065,1897,1770
4066,1919,1678
4067,1914,1660
4068,1904,1642
4069,1912,1616
4070,1887,1646
4071,1773,1869
4072,1689,2074
4073,1675,2127
4074,1757,2006
4075,1880,1759
4076,1903,1672
4077,1912,1655
4078,1914,1629
4079,1902,1615
4080,1705,2023
4081,1692,2059
4082,1679,2123
4083,1756,2000
4084,1878,1754
4085,1912,1658
4086,1900,1641
4087,1896,1616
4088,1900,1612
4089,1884,1631
4090,1770,1862
4091,1675,2045
4092,1661,2124
4093,1735,1995
4094,1864,1752
4095,1895,1657
4096,1898,1642
4097,1896,1627
4098,1887,1625
4099,1880,1645
4100,1757,1863
4101,1662,2056
4102,1660,2111
4103,1742,1993
4104,1864,1742
4105,1887,1657
4106,1883,1630
4107,1895,1625
4108,1897,1607
4109,1881,1610
4110,1754,1836
4111,1671,2045
4112,1658,2120
4113,1740,1993
4114,1866,1742
4115,1899,1659
4116,1897,1639
4117,1886,1612
4118,1881,1596
4119,1881,1610
4120,1758,1837
4121,1662,2044
4122,1657,2106
4123,1740,1995
4124,1855,1753
4125,1887,1674
4126,1881,1647
4127,1883,1640
4128,1882,1615
4129,1882,1643
4130,1753,1864
4131,1672,2059
4132,1658,2126
4133,1739,2011
4134,1854,1769
4135,1887,1671
4136,1885,1657
4137,1882,1642
4138,1881,1623
4139,1871,1630
4140,1758,1849
4141,1662,2046
4142,1655,2126
4143,1735,2013
4144,1867,1760
4145,1885,1661
4146,1884,1640
4147,1886,1624
4148,1884,1614
4149,1868,1641
4150,1753,1848
4151,1658,2056
4152,1646,2121
4153,1724,2011
4154,1853,1766
4155,1883,1673
4156,1882,1656
4157,1882,1641
4158,1884,1624
4159,1880,1631
4160,1758,1852
4161,1662,2059
4162,1648,2122
4163,1726,2009
4164,1849,1757
4165,1882,1657
4166,1883,1641
4167,1884,1613
4168,1885,1611
4169,1868,1630
4170,1752,1853
4171,1664,2056
4172,1657,2122
4173,1726,2007
4174,1863,1770
4175,1896,1671
4176,1883,1644
4177,1880,1627
4178,1881,1622
4179,1868,1625
4180,1756,1837
4181,1673,2056
4182,1656,2124
4183,1739,2010
4184,1863,1773
4185,1885,1672
4186,1884,1644
4187,1887,1613
4188,1886,1609
4189,1885,1625
4190,1773,1836
4191,1690,2041
4192,1687,2107
4193,1770,1996
4194,1898,1756
4195,1931,1656
4196,1945,1639
4197,1944,1613
4198,1934,1597
4199,1935,1624
4200,1821,1839
4201,1740,2047
4202,1737,2110
4203,1805,2008
4204,1932,1768
4205,1979,1672
4206,1978,1647
4207,1979,1628
4208,1978,1615
4209,1983,1641
4210,1881,1855
4211,1776,2060
4212,1771,2138
4213,1852,2029
4214,1977,1774
4215,2009,1674
4216,1995,1657
4217,1997,1628
4218,2009,1612
4219,1993,1625
4220,1882,1831
4221,1785,2040
4222,1756,2094
4223,1816,1966
4224,1929,1735
4225,1950,1600
4226,1932,1593
4227,1919,1560
4228,1929,1534
4229,1913,1529
4230,1771,1721
4231,1656,1932
4232,1645,1995
4233,1736,1871
4234,1838,1625
4235,1865,1513
4236,1853,1482
4237,1854,1455
4238,1823,1421
4239,1784,1439
4240,1659,1623
4241,1560,1820
4242,1518,1881
4243,1580,1756
4244,1692,1535
4245,1720,1416
4246,1704,1387
4247,1704,1357
4248,1695,1337
4249,1677,1342
4250,1534,1534
4251,1434,1757
4252,1407,1819
4253,1469,1718
4254,1578,1467
4255,1608,1351
4256,1580,1324
4257,1567,1307
4258,1560,1306
4259,1528,1323
4260,1406,1514
4261,1303,1727
4262,1262,1830
4263,1322,1708
4264,1431,1436
4265,1448,1357
4266,1436,1326
4267,1432,1325
4268,1423,1309
4269,1403,1326
4270,1288,1527
4271,1176,1752
4272,1144,1817
4273,1209,1708
4274,1310,1500
4275,1341,1389
4276,1336,1389
4277,1310,1341
4278,1294,1351
4279,1292,1339
4280,1192,1566
4281,1087,1771
4282,1066,1865
4283,1131,1758
4284,1245,1518
4285,1277,1400
4286,1276,1407
4287,1273,1389
4288,1272,1354
4289,1262,1384
4290,1160,1581
4291,1066,1804
4292,1051,1899
4293,1128,1786
4294,1256,1559
4295,1292,1438
4296,1278,1421
4297,1288,1417
4298,1293,1385
4299,1288,1390
4300,1181,1610
4301,1084,1837
4302,1081,1915
4303,1147,1802
4304,1275,1580
4305,1322,1471
4306,1325,1463
4307,1319,1446
4308,1308,1432
4309,1305,1432
4310,1210,1627
4311,1128,1866
4312,1118,1948
4313,1193,1864
4314,1304,1609
4315,1354,1512
4316,1359,1484
4317,1359,1465
4318,1369,1452
4319,1358,1468
4320,1272,1677
4321,1162,1870
4322,1152,1947
4323,1228,1865
4324,1354,1630
4325,1407,1530
4326,1416,1512
4327,1416,1497
4328,1416,1464
4329,1406,1463
4330,1320,1677
4331,1227,1897
4332,1212,1983
4333,1277,1886
4334,1404,1644
4335,1450,1533
4336,1451,1515
4337,1451,1511
4338,1462,1502
4339,1450,1513
4340,1355,1706
4341,1263,1898
4342,1246,1997
4343,1311,1911
4344,1436,1662
4345,1482,1544
4346,1481,1519
4347,1494,1516
4348,1483,1496
4349,1486,1502
4350,1388,1705
4351,1292,1930
4352,1287,2013
4353,1357,1927
4354,1481,1691
4355,1533,1579
4356,1534,1564
4357,1531,1545
4358,1532,1528
4359,1534,1532
4360,1439,1722
4361,1342,1933
4362,1337,2024
4363,1405,1934
4364,1531,1694
4365,1590,1579
4366,1590,1565
4367,1580,1549
4368,1583,1519
4369,1580,1530
4370,1484,1727
4371,1387,1951
4372,1373,2041
4373,1448,1951
4374,1567,1711
4375,1624,1593
4376,1614,1576
4377,1625,1561
4378,1630,1547
4379,1628,1546
4380,1532,1756
4381,1433,1976
4382,1415,2056
4383,1471,1962
4384,1596,1727
4385,1645,1597
4386,1645,1582
4387,1656,1566
4388,1656,1547
4389,1645,1560
4390,1549,1752
4391,1451,1977
4392,1432,2056
4393,1498,1968
4394,1626,1727
4395,1688,1600
4396,1675,1578
4397,1672,1562
4398,1679,1560
4399,1677,1561
4400,1576,1752
4401,1480,1976
4402,1463,2061
4403,1518,1977
4404,1645,1741
4405,1695,1609
4406,1702,1583
4407,1705,1578
4408,1708,1552
4409,1695,1560
4410,1597,1742
4411,1501,1966
4412,1483,2059
4413,1550,1981
4414,1676,1742
4415,1723,1615
4416,1720,1596
4417,1720,1580
4418,1721,1560
4419,1707,1564
4420,1613,1742
4421,1516,1966
4422,1502,2060
4423,1567,1982
4424,1692,1738
4425,1741,1611
4426,1743,1596
4427,1741,1583
4428,1743,1576
4429,1736,1576
4430,1642,1752
4431,1533,1975
4432,1502,2059
4433,1578,1984
4434,1703,1758
4435,1753,1628
4436,1754,1608
4437,1757,1580
4438,1756,1579
4439,1752,1593
4440,1654,1771
4441,1548,1981
4442,1527,2074
4443,1592,1983
4444,1710,1757
4445,1771,1624
4446,1774,1596
4447,1766,1579
4448,1768,1551
4449,1759,1575
4450,1673,1757
4451,1559,1978
4452,1532,2072
4453,1594,1993
4454,1708,1768
4455,1769,1642
4456,1769,1624
4457,1772,1599
4458,1770,1581
4459,1759,1595
4460,1672,1771
4461,1567,1995
4462,1547,2088
4463,1609,1999
4464,1726,1758
4465,1775,1627
4466,1773,1609
4467,1774,1593
4468,1776,1565
4469,1775,1575
4470,1678,1758
4471,1582,1994
4472,1561,2088
4473,1624,2010
4474,1751,1774
4475,1806,1645
4476,1805,1625
4477,1803,1614
4478,1804,1608
4479,1804,1608
4480,1694,1774
4481,1595,2013
4482,1579,2110
4483,1640,2040
4484,1756,1805
4485,1806,1662
4486,1815,1648
4487,1818,1630
4488,1805,1610
4489,1791,1608
4490,1704,1784
4491,1597,2011
4492,1576,2096
4493,1640,2024
4494,1756,1784
4495,1805,1641
4496,1816,1627
4497,1806,1609
4498,1805,1591
4499,1803,1595
4500,1710,1772
4501,1609,2008
4502,1592,2092
4503,1646,2024
4504,1772,1800
4505,1823,1657
4506,1833,1644
4507,1822,1629
4508,1822,1614
4509,1821,1613
4510,1725,1784
4511,1615,2012
4512,1598,2118
4513,1660,2044
4514,1785,1802
4515,1837,1646
4516,1834,1631
4517,1835,1608
4518,1833,1598
4519,1817,1594
4520,1726,1772
4521,1626,1998
4522,1596,2088
4523,1648,2016
4524,1770,1784
4525,1832,1647
4526,1832,1626
4527,1831,1608
4528,1820,1595
4529,1818,1598
4530,1737,1755
4531,1624,1977
4532,1583,2073
4533,1645,1998
4534,1805,1804
4535,1882,1691
4536,1883,1656
4537,1897,1643
4538,1919,1642
4539,1934,1630
4540,1869,1800
4541,1787,2057
4542,1775,2191
4543,1854,2138
4544,1999,1911
4545,2088,1757
4546,2108,1752
4547,2124,1759
4548,2137,1754
4549,2156,1754
4550,2095,1929
4551,1998,2175
4552,1979,2284
4553,2064,2236
4554,2219,1995
4555,2311,1870
4556,2316,1865
4557,2315,1868
4558,2345,1866
4559,2349,1869
4560,2268,2059
4561,2169,2282
4562,2157,2392
4563,2232,2335
4564,2361,2122
4565,2414,2008
4566,2425,1997
4567,2430,1979
4568,2440,1965
4569,2441,1960
4570,2348,2124
4571,2239,2360
4572,2216,2457
4573,2266,2393
4574,2376,2183
4575,2426,2027
4576,2416,1993
4577,2412,1965
4578,2397,1949
4579,2395,1950
4580,2303,2112
4581,2200,2333
4582,2158,2427
4583,2203,2361
4584,2318,2139
4585,2366,1979
4586,2364,1966
4587,2360,1949
4588,2361,1928
4589,2346,1930
4590,2251,2087
4591,2138,2302
4592,2104,2407
4593,2152,2343
4594,2271,2104
4595,2333,1949
4596,2331,1918
4597,2328,1899
4598,2330,1879
4599,2317,1865
4600,2224,2025
4601,2111,2255
4602,2087,2347
4603,2136,2287
4604,2250,2059
4605,2312,1902
4606,2301,1869
4607,2300,1852
4608,2296,1822
4609,2284,1823
4610,2190,1992
4611,2078,2219
4612,2042,2320
4613,2092,2255
4614,2201,2023
4615,2264,1870
4616,2252,1839
4617,2251,1831
4618,2238,1815
4619,2222,1816
4620,2135,1963
4621,2023,2201
4622,1991,2295
4623,2028,2218
4624,2142,1993
4625,2203,1839
4626,2189,1807
4627,2189,1801
4628,2188,1774
4629,2176,1768
4630,2091,1920
4631,1967,2168
4632,1943,2267
4633,1992,2202
4634,2108,1976
4635,2170,1820
4636,2169,1800
4637,2158,1772
4638,2158,1756
4639,2142,1752
4640,2058,1902
4641,1949,2137
4642,1916,2236
4643,1962,2184
4644,2073,1946
4645,2135,1787
4646,2126,1768
4647,2125,1752
4648,2123,1722
4649,2121,1720
4650,2025,1867
4651,1917,2103
4652,1883,2203
4653,1928,2152
4654,2042,1917
4655,2104,1768
4656,2094,1742
4657,2091,1719
4658,2092,1708
4659,2075,1708
4660,1992,1863
4661,1880,2091
4662,1848,2190
4663,1888,2138
4664,1998,1903
4665,2062,1753
4666,2058,1725
4667,2046,1707
4668,2046,1691
4669,2040,1690
4670,1950,1848
4671,1834,2078
4672,1792,2192
4673,1838,2138
4674,1951,1912
4675,2027,1755
4676,2028,1721
4677,2016,1704
4678,2015,1688
4679,2010,1689
4680,1929,1834
4681,1819,2062
4682,1784,2157
4683,1831,2106
4684,1963,1882
4685,2029,1720
4686,2031,1704
4687,2029,1693
4688,2013,1672
4689,2008,1674
4690,1931,1816
4691,1818,2041
4692,1772,2153
4693,1820,2109
4694,1930,1882
4695,1997,1723
4696,1994,1692
4697,1981,1673
4698,1976,1646
4699,1967,1655
4700,1886,1791
4701,1770,2029
4702,1735,2151
4703,1775,2093
4704,1895,1865
4705,1962,1694
4706,1963,1686
4707,1950,1674
4708,1960,1658
4709,1950,1657
4710,1868,1805
4711,1754,2043
4712,1710,2157
4713,1759,2107
4714,1882,1881
4715,1948,1709
4716,1951,1692
4717,1948,1677
4718,1946,1659
4719,1935,1659
4720,1855,1799
4721,1739,2039
4722,1709,2142
4723,1757,2095
4724,1882,1884
4725,1947,1721
4726,1948,1691
4727,1947,1672
4728,1949,1655
4729,1935,1655
4730,1864,1792
4731,1742,2013
4732,1708,2124
4733,1742,2076
4734,1868,1863
4735,1943,1691
4736,1945,1675
4737,1936,1659
4738,1932,1644
4739,1920,1643
4740,1851,1787
4741,1726,2015
4742,1693,2136
4743,1742,2104
4744,1863,1879
4745,1930,1720
4746,1918,1688
4747,1916,1660
4748,1920,1641
4749,1913,1640
4750,1836,1773
4751,1722,2013
4752,1693,2124
4753,1737,2078
4754,1852,1854
4755,1916,1690
4756,1915,1672
4757,1915,1660
4758,1914,1640
4759,1902,1628
4760,1824,1759
4761,1708,2008
4762,1675,2121
4763,1727,2077
4764,1848,1852
4765,1913,1679
4766,1917,1660
4767,1912,1647
4768,1914,1624
4769,1902,1627
4770,1832,1770
4771,1710,2008
4772,1676,2123
4773,1721,2079
4774,1846,1864
4775,1914,1694
4776,1913,1663
4777,1910,1640
4778,1900,1623
4779,1899,1614
4780,1819,1751
4781,1705,1981
4782,1661,2105
4783,1708,2059
4784,1833,1839
4785,1903,1674
4786,1899,1656
4787,1901,1630
4788,1897,1611
4789,1897,1613
4790,1808,1753
4791,1691,1995
4792,1658,2110
4793,1705,2079
4794,1817,1855
4795,1888,1687
4796,1895,1673
4797,1885,1655
4798,1887,1640
4799,1895,1643
4800,1819,1774
4801,1693,2009
4802,1658,2125
4803,1695,2091
4804,1818,1867
4805,1888,1688
4806,1897,1657
4807,1895,1640
4808,1896,1624
4809,1886,1629
4810,1819,1752
4811,1692,1992
4812,1658,2107
4813,1695,2074
4814,1819,1852
4815,1896,1673
4816,1900,1644
4817,1901,1641
4818,1901,1627
4819,1896,1626
4820,1832,1741
4821,1709,1982
4822,1672,2105
4823,1704,2058
4824,1817,1837
4825,1901,1662
4826,1903,1643
4827,1898,1629
4828,1901,1612
4829,1887,1610
4830,1831,1738
4831,1710,1977
4832,1672,2091
4833,1705,2060
4834,1821,1849
4835,1900,1662
4836,1895,1640
4837,1883,1615
4838,1883,1609
4839,1883,1595
4840,1805,1720
4841,1689,1950
4842,1643,2074
4843,1678,2060
4844,1800,1835
4845,1869,1646
4846,1869,1626
4847,1867,1625
4848,1870,1608
4849,1868,1612
4850,1799,1726
4851,1673,1978
4852,1632,2095
4853,1673,2062
4854,1801,1849
4855,1869,1660
4856,1880,1644
4857,1865,1630
4858,1866,1623
4859,1864,1615
4860,1792,1737
4861,1677,1980
4862,1642,2092
4863,1676,2057
4864,1800,1834
4865,1882,1656
4866,1880,1626
4867,1868,1609
4868,1866,1591
4869,1864,1581
4870,1802,1705
4871,1688,1944
4872,1639,2063
4873,1676,2043
4874,1802,1832
4875,1879,1644
4876,1871,1623
4877,1879,1608
4878,1871,1592
4879,1864,1593
4880,1788,1709
4881,1671,1951
4882,1627,2063
4883,1662,2047
4884,1787,1848
4885,1866,1660
4886,1868,1641
4887,1867,1614
4888,1866,1594
4889,1864,1599
4890,1800,1723
4891,1673,1952
4892,1641,2080
4893,1680,2059
4894,1802,1864
4895,1883,1687
4896,1883,1657
4897,1872,1631
4898,1870,1613
4899,1865,1610
4900,1804,1722
4901,1688,1966
4902,1643,2104
4903,1673,2063
4904,1784,1855
4905,1869,1662
4906,1882,1641
4907,1881,1628
4908,1870,1606
4909,1868,1608
4910,1804,1723
4911,1688,1976
4912,1642,2107
4913,1677,2075
4914,1789,1851
4915,1871,1676
4916,1880,1647
4917,1871,1643
4918,1869,1616
4919,1864,1613
4920,1798,1725
4921,1673,1977
4922,1632,2105
4923,1664,2076
4924,1785,1870
4925,1868,1689
4926,1869,1661
4927,1863,1643
4928,1866,1614
4929,1853,1614
4930,1788,1727
4931,1673,1978
4932,1630,2106
4933,1672,2089
4934,1784,1871
4935,1867,1694
4936,1869,1658
4937,1871,1643
4938,1870,1626
4939,1866,1611
4940,1805,1722
4941,1689,1967
4942,1646,2105
4943,1678,2075
4944,1787,1853
4945,1869,1662
4946,1869,1643
4947,1869,1627
4948,1866,1612
4949,1863,1600
4950,1804,1720
4951,1675,1959
4952,1627,2089
4953,1663,2074
4954,1785,1866
4955,1871,1675
4956,1870,1645
4957,1866,1640
4958,1867,1612
4959,1871,1599
4960,1819,1708
4961,1689,1951
4962,1643,2088
4963,1672,2060
4964,1800,1853
4965,1881,1659
4966,1871,1627
4967,1872,1607
4968,1868,1595
4969,1867,1591
4970,1816,1704
4971,1690,1936
4972,1644,2064
4973,1672,2060
4974,1785,1850
4975,1872,1647
4976,1871,1626
4977,1870,1611
4978,1866,1596
4979,1864,1596
4980,1802,1710
4981,1672,1964
4982,1625,2087
4983,1660,2073
4984,1786,1870
4985,1868,1675
4986,1867,1654
4987,1865,1631
4988,1866,1611
4989,1853,1608
4990,1805,1706
4991,1679,1951
4992,1640,2092
4993,1672,2088
4994,1787,1883
4995,1879,1689
4996,1869,1657
4997,1866,1629
4998,1866,1613
4999,1865,1623
5000,1806,1724
