Counter,Channel1,Channel2
0,1834,1805
1,1818,1835
2,1815,1868
3,1822,1864
4,1824,1849
5,1838,1818
6,1849,1768
7,1839,1768
8,1835,1771
9,1833,1774
10,1835,1790
11,1816,1808
12,1791,1864
13,1816,1864
14,1822,1832
15,1848,1806
16,1853,1770
17,1855,1784
18,1848,1789
19,1832,1806
20,1834,1831
21,1818,1834
22,1789,1884
23,1789,1855
24,1799,1832
25,1834,1804
26,1832,1783
27,1820,1770
28,1807,1769
29,1801,1774
30,1790,1785
31,1782,1823
32,1775,1855
33,1787,1866
34,1815,1831
35,1836,1789
36,1832,1782
37,1832,1774
38,1821,1769
39,1806,1801
40,1818,1821
41,1791,1822
42,1784,1850
43,1773,1831
44,1806,1837
45,1824,1790
46,1837,1785
47,1837,1769
48,1834,1805
49,1819,1772
50,1816,1800
51,1792,1806
52,1775,1839
53,1791,1850
54,1804,1820
55,1821,1815
56,1832,1771
57,1837,1784
58,1838,1790
59,1833,1805
60,1807,1789
61,1803,1816
62,1787,1817
63,1787,1823
64,1819,1836
65,1819,1787
66,1835,1774
67,1834,1786
68,1834,1785
69,1816,1783
70,1821,1806
71,1790,1807
72,1799,1848
73,1756,1818
74,1787,1807
75,1818,1770
76,1800,1751
77,1785,1752
78,1757,1767
79,1739,1768
80,1722,1772
81,1691,1803
82,1688,1803
83,1706,1835
84,1757,1818
85,1738,1770
86,1723,1753
87,1707,1755
88,1691,1754
89,1676,1768
90,1659,1756
91,1662,1807
92,1645,1833
93,1647,1833
94,1677,1818
95,1673,1789
96,1678,1743
97,1678,1726
98,1661,1742
99,1612,1767
100,1582,1757
101,1564,1767
102,1561,1787
103,1545,1770
104,1544,1725
105,1564,1735
106,1580,1710
107,1550,1710
108,1550,1752
109,1579,1727
110,1624,1722
111,1577,1786
112,1580,1759
113,1549,1789
114,1561,1772
115,1580,1724
116,1581,1678
117,1568,1675
118,1576,1686
119,1581,1725
120,1564,1721
121,1579,1720
122,1562,1773
123,1560,1788
124,1580,1768
125,1609,1752
126,1611,1711
127,1597,1705
128,1582,1737
129,1566,1705
130,1584,1720
131,1577,1737
132,1561,1742
133,1560,1773
134,1566,1756
135,1596,1739
136,1611,1724
137,1626,1737
138,1614,1735
139,1595,1754
140,1582,1742
141,1593,1755
142,1593,1804
143,1560,1791
144,1582,1757
145,1599,1726
146,1643,1720
147,1641,1710
148,1639,1720
149,1598,1708
150,1599,1755
151,1578,1767
152,1567,1775
153,1607,1756
154,1609,1723
155,1624,1725
156,1656,1676
157,1661,1724
158,1640,1720
159,1613,1734
160,1610,1742
161,1594,1774
162,1592,1770
163,1623,1751
164,1647,1739
165,1656,1687
166,1644,1689
167,1657,1720
168,1675,1755
169,1657,1768
170,1613,1741
171,1624,1776
172,1640,1806
173,1640,1771
174,1672,1722
175,1672,1702
176,1674,1721
177,1674,1708
178,1672,1759
179,1679,1758
180,1675,1803
181,1646,1823
182,1639,1802
183,1657,1769
184,1664,1756
185,1679,1726
186,1705,1725
187,1706,1722
188,1677,1734
189,1654,1757
190,1657,1800
191,1631,1807
192,1639,1817
193,1676,1788
194,1705,1753
195,1710,1735
196,1723,1736
197,1704,1758
198,1706,1768
199,1709,1771
200,1677,1816
201,1671,1838
202,1675,1834
203,1679,1806
204,1711,1790
205,1737,1756
206,1740,1768
207,1712,1769
208,1695,1742
209,1711,1703
210,1676,1722
211,1663,1720
212,1675,1720
213,1680,1661
214,1704,1643
215,1721,1631
216,1751,1624
217,1727,1597
218,1710,1594
219,1709,1591
220,1679,1609
221,1673,1641
222,1690,1660
223,1705,1613
224,1708,1594
225,1710,1576
226,1711,1558
227,1709,1565
228,1705,1592
229,1704,1611
230,1663,1630
231,1662,1674
232,1674,1674
233,1690,1690
234,1711,1640
235,1726,1595
236,1725,1600
237,1727,1641
238,1723,1644
239,1707,1656
240,1692,1644
241,1663,1703
242,1659,1705
243,1678,1688
244,1705,1656
245,1707,1640
246,1708,1625
247,1693,1606
248,1691,1644
249,1692,1662
250,1659,1695
251,1659,1710
252,1655,1707
253,1674,1707
254,1695,1678
255,1709,1672
256,1708,1659
257,1705,1647
258,1694,1661
259,1688,1680
260,1662,1674
261,1656,1719
262,1657,1738
263,1679,1723
264,1695,1687
265,1723,1674
266,1723,1659
267,1712,1660
268,1709,1691
269,1692,1676
270,1674,1709
271,1664,1738
272,1675,1742
273,1693,1752
274,1695,1690
275,1709,1661
276,1704,1657
277,1704,1670
278,1710,1674
279,1695,1692
280,1675,1692
281,1656,1739
282,1671,1744
283,1674,1740
284,1704,1695
285,1712,1689
286,1710,1674
287,1706,1673
288,1691,1690
289,1688,1679
290,1674,1725
291,1656,1753
292,1657,1742
293,1663,1723
294,1689,1693
295,1703,1660
296,1707,1661
297,1691,1659
298,1694,1693
299,1688,1693
300,1672,1724
301,1659,1736
302,1660,1769
303,1674,1756
304,1694,1719
305,1710,1702
306,1720,1708
307,1707,1704
308,1708,1710
309,1695,1706
310,1674,1710
311,1662,1754
312,1659,1759
313,1674,1755
314,1693,1725
315,1708,1690
316,1708,1679
317,1704,1677
318,1703,1705
319,1693,1723
320,1678,1736
321,1647,1755
322,1662,1767
323,1689,1741
324,1706,1708
325,1720,1704
326,1719,1694
327,1710,1695
328,1691,1690
329,1689,1720
330,1677,1724
331,1660,1760
332,1673,1775
333,1694,1752
334,1733,1692
335,1723,1674
336,1720,1662
337,1709,1690
338,1712,1703
339,1710,1710
340,1692,1753
341,1677,1786
342,1674,1785
343,1691,1751
344,1725,1693
345,1742,1661
346,1739,1690
347,1728,1736
348,1725,1754
349,1722,1784
350,1695,1804
351,1692,1852
352,1705,1853
353,1720,1855
354,1736,1817
355,1741,1821
356,1744,1806
357,1739,1833
358,1739,1838
359,1722,1838
360,1705,1864
361,1705,1912
362,1707,1914
363,1719,1897
364,1741,1855
365,1742,1823
366,1752,1823
367,1743,1820
368,1742,1850
369,1738,1849
370,1722,1865
371,1694,1899
372,1705,1915
373,1710,1886
374,1736,1864
375,1753,1839
376,1755,1833
377,1755,1832
378,1742,1836
379,1739,1839
380,1710,1856
381,1693,1897
382,1694,1903
383,1722,1884
384,1742,1849
385,1758,1816
386,1757,1807
387,1770,1833
388,1769,1833
389,1758,1863
390,1738,1852
391,1721,1886
392,1725,1903
393,1728,1883
394,1758,1854
395,1770,1818
396,1768,1824
397,1771,1801
398,1758,1817
399,1758,1817
400,1742,1850
401,1723,1880
402,1722,1886
403,1740,1851
404,1758,1832
405,1785,1804
406,1773,1789
407,1771,1787
408,1769,1819
409,1769,1823
410,1754,1823
411,1741,1866
412,1738,1866
413,1756,1834
414,1773,1804
415,1801,1789
416,1800,1768
417,1800,1770
418,1790,1788
419,1774,1816
420,1769,1815
421,1752,1851
422,1743,1865
423,1769,1838
424,1774,1802
425,1789,1786
426,1791,1768
427,1788,1772
428,1774,1789
429,1773,1801
430,1770,1836
431,1752,1855
432,1770,1870
433,1774,1853
434,1803,1807
435,1818,1783
436,1817,1771
437,1807,1773
438,1800,1801
439,1790,1800
440,1772,1816
441,1758,1850
442,1768,1863
443,1784,1849
444,1800,1822
445,1799,1783
446,1802,1770
447,1801,1787
448,1799,1789
449,1799,1805
450,1784,1821
451,1757,1851
452,1758,1871
453,1773,1848
454,1788,1817
455,1808,1789
456,1806,1788
457,1800,1783
458,1804,1806
459,1789,1805
460,1773,1819
461,1756,1851
462,1753,1871
463,1771,1849
464,1800,1818
465,1816,1788
466,1805,1784
467,1805,1787
468,1800,1803
469,1802,1803
470,1775,1805
471,1756,1849
472,1757,1848
473,1772,1837
474,1803,1818
475,1807,1775
476,1806,1784
477,1805,1787
478,1799,1816
479,1774,1820
480,1772,1822
481,1740,1863
482,1752,1870
483,1760,1854
484,1800,1834
485,1817,1786
486,1802,1790
487,1801,1776
488,1791,1800
489,1784,1802
490,1769,1804
491,1754,1837
492,1752,1854
493,1768,1832
494,1788,1815
495,1803,1771
496,1805,1771
497,1791,1784
498,1800,1790
499,1791,1788
500,1773,1805
501,1757,1833
502,1760,1848
503,1784,1832
504,1820,1789
505,1821,1758
506,1821,1753
507,1805,1775
508,1799,1773
509,1789,1785
510,1775,1790
511,1753,1835
512,1754,1836
513,1768,1818
514,1786,1786
515,1791,1757
516,1800,1741
517,1802,1753
518,1788,1757
519,1775,1757
520,1775,1806
521,1739,1821
522,1739,1835
523,1770,1833
524,1803,1786
525,1820,1758
526,1819,1756
527,1803,1757
528,1789,1771
529,1789,1769
530,1770,1785
531,1742,1836
532,1741,1848
533,1771,1832
534,1788,1788
535,1801,1770
536,1790,1753
537,1788,1768
538,1787,1759
539,1786,1786
540,1759,1802
541,1751,1837
542,1751,1839
543,1759,1819
544,1790,1784
545,1803,1753
546,1802,1739
547,1801,1742
548,1785,1769
549,1784,1773
550,1753,1788
551,1739,1832
552,1743,1833
553,1768,1822
554,1785,1786
555,1789,1770
556,1790,1757
557,1803,1769
558,1790,1770
559,1784,1773
560,1772,1773
561,1758,1816
562,1754,1822
563,1768,1815
564,1784,1769
565,1804,1739
566,1802,1738
567,1800,1740
568,1787,1753
569,1788,1771
570,1784,1799
571,1752,1816
572,1757,1822
573,1767,1802
574,1788,1782
575,1791,1738
576,1801,1744
577,1785,1739
578,1784,1768
579,1789,1771
580,1776,1787
581,1759,1821
582,1769,1832
583,1769,1804
584,1788,1787
585,1820,1738
586,1816,1737
587,1804,1741
588,1804,1753
589,1788,1758
590,1790,1791
591,1755,1804
592,1752,1817
593,1768,1802
594,1785,1784
595,1805,1758
596,1817,1741
597,1803,1742
598,1800,1756
599,1790,1783
600,1784,1790
601,1766,1830
602,1759,1833
603,1771,1823
604,1787,1804
605,1800,1772
606,1816,1768
607,1806,1785
608,1805,1790
609,1801,1804
610,1771,1807
611,1757,1834
612,1760,1848
613,1770,1833
614,1790,1802
615,1801,1774
616,1801,1757
617,1790,1786
618,1774,1775
619,1770,1799
620,1768,1817
621,1754,1838
622,1754,1851
623,1758,1838
624,1789,1819
625,1801,1784
626,1804,1774
627,1804,1786
628,1802,1773
629,1802,1801
630,1785,1817
631,1770,1848
632,1768,1849
633,1771,1848
634,1801,1814
635,1819,1783
636,1817,1754
637,1807,1758
638,1806,1776
639,1804,1804
640,1784,1806
641,1769,1834
642,1769,1853
643,1787,1832
644,1815,1800
645,1832,1760
646,1822,1756
647,1821,1753
648,1822,1741
649,1835,1757
650,1821,1771
651,1807,1848
652,1805,1882
653,1819,1882
654,1839,1868
655,1853,1852
656,1849,1868
657,1864,1898
658,1853,1948
659,1834,1981
660,1816,2040
661,1799,2103
662,1804,2141
663,1807,2168
664,1848,2169
665,1864,2167
666,1865,2206
667,1838,2251
668,1824,2286
669,1822,2316
670,1819,2348
671,1817,2412
672,1833,2457
673,1837,2457
674,1852,2455
675,1851,2461
676,1839,2478
677,1832,2496
678,1838,2522
679,1833,2553
680,1807,2592
681,1786,2633
682,1786,2665
683,1799,2667
684,1821,2650
685,1839,2635
686,1832,2632
687,1815,2639
688,1817,2669
689,1808,2686
690,1805,2703
691,1801,2764
692,1803,2744
693,1820,2745
694,1853,2747
695,1848,2697
696,1838,2686
697,1835,2713
698,1838,2713
699,1851,2730
700,1839,2732
701,1822,2781
702,1833,2776
703,1851,2765
704,1871,2733
705,1902,2684
706,1897,2686
707,1871,2699
708,1881,2713
709,1881,2714
710,1884,2715
711,1855,2759
712,1868,2781
713,1884,2762
714,1916,2746
715,1944,2696
716,1933,2698
717,1918,2697
718,1928,2712
719,1928,2716
720,1928,2734
721,1897,2751
722,1912,2761
723,1915,2744
724,1945,2696
725,1947,2654
726,1945,2664
727,1947,2638
728,1951,2637
729,1950,2633
730,1946,2638
731,1919,2683
732,1919,2685
733,1932,2650
734,1976,2632
735,1979,2574
736,1976,2568
737,1981,2560
738,1982,2574
739,1992,2589
740,1968,2575
741,1949,2606
742,1959,2621
743,1963,2591
744,1966,2569
745,1976,2525
746,1997,2492
747,1999,2492
748,1996,2493
749,1975,2492
750,1959,2505
751,1962,2526
752,1977,2522
753,1976,2525
754,1960,2488
755,1991,2424
756,2008,2411
757,1999,2398
758,1980,2409
759,1964,2414
760,1966,2412
761,1996,2457
762,1980,2445
763,1982,2427
764,1991,2391
765,2010,2365
766,1998,2346
767,2011,2328
768,2008,2351
769,1983,2347
770,1982,2349
771,1948,2410
772,1967,2395
773,1977,2364
774,1978,2346
775,1993,2284
776,2028,2269
777,2040,2280
778,2014,2280
779,2013,2301
780,2013,2287
781,2000,2332
782,1994,2318
783,2010,2312
784,2027,2285
785,2030,2247
786,2029,2234
787,2030,2235
788,2025,2234
789,2013,2254
790,2010,2252
791,1997,2280
792,1995,2281
793,1992,2250
794,2008,2218
795,2025,2190
796,2040,2199
797,2055,2170
798,2030,2199
799,2013,2190
800,2011,2183
801,2008,2220
802,1996,2235
803,1997,2206
804,2013,2186
805,2026,2138
806,2045,2123
807,2040,2108
808,2010,2106
809,1999,2124
810,1983,2128
811,1968,2156
812,1963,2157
813,1960,2137
814,1977,2122
815,1993,2092
816,1994,2073
817,1993,2074
818,1993,2075
819,1981,2075
820,1964,2089
821,1927,2111
822,1944,2124
823,1951,2110
824,1967,2060
825,1968,2029
826,1978,2009
827,1981,2013
828,1961,2011
829,1945,2029
830,1930,2025
831,1916,2060
832,1916,2060
833,1929,2046
834,1947,2009
835,1945,1977
836,1951,1964
837,1947,1966
838,1961,1966
839,1948,1978
840,1927,1979
841,1897,2014
842,1898,2028
843,1914,2008
844,1931,1976
845,1959,1918
846,1959,1915
847,1935,1928
848,1934,1934
849,1930,1933
850,1910,1944
851,1886,1980
852,1885,2014
853,1913,1977
854,1919,1948
855,1932,1917
856,1934,1911
857,1933,1912
858,1918,1928
859,1918,1948
860,1902,1960
861,1867,1976
862,1879,1999
863,1880,1977
864,1912,1959
865,1927,1912
866,1927,1896
867,1918,1895
868,1903,1898
869,1912,1927
870,1898,1928
871,1865,1948
872,1872,1976
873,1884,1945
874,1913,1904
875,1927,1871
876,1912,1870
877,1896,1868
878,1887,1881
879,1880,1900
880,1869,1910
881,1836,1933
882,1833,1948
883,1835,1928
884,1855,1912
885,1880,1853
886,1884,1838
887,1880,1865
888,1865,1896
889,1853,1898
890,1854,1913
891,1822,1934
892,1823,1949
893,1824,1933
894,1849,1913
895,1884,1871
896,1881,1866
897,1866,1872
898,1870,1898
899,1866,1912
900,1850,1911
901,1824,1929
902,1837,1947
903,1849,1930
904,1870,1897
905,1884,1854
906,1883,1849
907,1880,1847
908,1881,1869
909,1883,1880
910,1882,1868
911,1864,1900
912,1864,1920
913,1855,1902
914,1879,1900
915,1886,1846
916,1900,1836
917,1900,1847
918,1882,1865
919,1855,1885
920,1885,1915
921,1847,1918
922,1833,1946
923,1818,1935
924,1834,1898
925,1881,1885
926,1882,1855
927,1885,1871
928,1853,1885
929,1846,1912
930,1849,1913
931,1822,1946
932,1832,1976
933,1839,1932
934,1852,1915
935,1863,1887
936,1848,1866
937,1836,1880
938,1837,1870
939,1848,1911
940,1833,1900
941,1801,1929
942,1801,1944
943,1800,1945
944,1821,1913
945,1866,1886
946,1864,1856
947,1851,1870
948,1835,1867
949,1805,1886
950,1801,1912
951,1784,1931
952,1803,1935
953,1820,1929
954,1833,1913
955,1850,1872
956,1836,1855
957,1835,1866
958,1821,1869
959,1817,1882
960,1804,1885
961,1784,1912
962,1786,1930
963,1774,1914
964,1803,1880
965,1818,1846
966,1819,1819
967,1806,1823
968,1802,1838
969,1801,1869
970,1790,1868
971,1773,1911
972,1769,1929
973,1772,1917
974,1802,1902
975,1818,1866
976,1818,1849
977,1833,1864
978,1818,1867
979,1805,1896
980,1790,1884
981,1789,1916
982,1784,1919
983,1788,1914
984,1803,1881
985,1822,1834
986,1832,1834
987,1820,1832
988,1815,1838
989,1807,1852
990,1803,1849
991,1782,1884
992,1787,1899
993,1787,1885
994,1821,1855
995,1834,1819
996,1833,1804
997,1831,1799
998,1832,1822
999,1823,1832
1000,1803,1834
1001,1789,1866
1002,1789,1884
1003,1787,1870
1004,1818,1848
1005,1837,1815
1006,1832,1789
1007,1832,1786
1008,1807,1820
1009,1808,1830
1010,1787,1833
1011,1773,1866
1012,1767,1880
1013,1773,1854
1014,1790,1836
1015,1821,1800
1016,1820,1784
1017,1819,1805
1018,1815,1816
1019,1801,1832
1020,1789,1838
1021,1756,1870
1022,1742,1897
1023,1756,1896
1024,1800,1895
1025,1838,1864
1026,1837,1865
1027,1836,1823
1028,1802,1768
1029,1772,1742
1030,1735,1758
1031,1703,1789
1032,1679,1788
1033,1673,1727
1034,1675,1664
1035,1663,1612
1036,1644,1550
1037,1646,1545
1038,1630,1517
1039,1599,1500
1040,1575,1480
1041,1528,1484
1042,1485,1468
1043,1496,1417
1044,1500,1342
1045,1498,1288
1046,1470,1228
1047,1453,1196
1048,1450,1180
1049,1419,1159
1050,1415,1148
1051,1389,1151
1052,1399,1149
1053,1402,1095
1054,1406,1024
1055,1421,986
1056,1420,940
1057,1406,905
1058,1404,892
1059,1400,890
1060,1400,863
1061,1384,875
1062,1373,870
1063,1386,815
1064,1421,775
1065,1451,720
1066,1453,699
1067,1439,681
1068,1423,680
1069,1418,668
1070,1419,665
1071,1406,652
1072,1405,637
1073,1419,636
1074,1436,587
1075,1465,551
1076,1468,511
1077,1466,490
1078,1464,504
1079,1454,506
1080,1437,489
1081,1421,491
1082,1419,508
1083,1406,488
1084,1433,455
1085,1452,413
1086,1452,392
1087,1454,392
1088,1436,395
1089,1420,425
1090,1420,411
1091,1415,446
1092,1420,443
1093,1422,447
1094,1439,411
1095,1451,405
1096,1464,396
1097,1470,409
1098,1467,443
1099,1451,472
1100,1452,521
1101,1447,569
1102,1421,604
1103,1436,603
1104,1464,600
1105,1483,571
1106,1484,588
1107,1481,620
1108,1482,648
1109,1486,665
1110,1484,688
1111,1470,735
1112,1467,779
1113,1495,778
1114,1517,765
1115,1546,748
1116,1560,766
1117,1544,765
1118,1546,794
1119,1533,815
1120,1534,828
1121,1530,887
1122,1533,910
1123,1546,924
1124,1577,923
1125,1594,906
1126,1596,909
1127,1596,938
1128,1594,950
1129,1595,971
1130,1595,1004
1131,1578,1064
1132,1576,1083
1133,1581,1085
1134,1608,1066
1135,1630,1053
1136,1639,1054
1137,1626,1066
1138,1630,1085
1139,1628,1101
1140,1614,1102
1141,1594,1161
1142,1595,1178
1143,1596,1176
1144,1611,1161
1145,1630,1150
1146,1640,1175
1147,1641,1183
1148,1642,1198
1149,1623,1241
1150,1626,1260
1151,1627,1258
1152,1648,1256
1153,1674,1211
1154,1678,1211
1155,1677,1231
1156,1673,1241
1157,1661,1273
1158,1662,1292
1159,1641,1324
1160,1643,1339
1161,1657,1341
1162,1675,1323
1163,1696,1308
1164,1692,1303
1165,1690,1310
1166,1690,1327
1167,1688,1343
1168,1678,1357
1169,1657,1384
1170,1659,1421
1171,1660,1416
1172,1688,1403
1173,1695,1388
1174,1705,1374
1175,1694,1385
1176,1691,1404
1177,1688,1405
1178,1679,1415
1179,1660,1452
1180,1658,1471
1181,1673,1485
1182,1692,1466
1183,1706,1436
1184,1711,1421
1185,1710,1437
1186,1709,1468
1187,1710,1481
1188,1706,1496
1189,1676,1529
1190,1675,1535
1191,1676,1548
1192,1692,1529
1193,1710,1501
1194,1721,1494
1195,1710,1497
1196,1710,1516
1197,1707,1517
1198,1706,1515
1199,1690,1561
1200,1692,1579
1201,1691,1566
1202,1708,1546
1203,1737,1529
1204,1740,1515
1205,1736,1515
1206,1734,1531
1207,1726,1535
1208,1721,1562
1209,1692,1579
1210,1692,1598
1211,1691,1609
1212,1721,1590
1213,1741,1550
1214,1753,1531
1215,1740,1544
1216,1740,1562
1217,1737,1578
1218,1721,1592
1219,1708,1596
1220,1703,1631
1221,1704,1628
1222,1726,1611
1223,1755,1577
1224,1754,1563
1225,1752,1560
1226,1752,1579
1227,1741,1598
1228,1738,1614
1229,1712,1642
1230,1708,1658
1231,1712,1657
1232,1735,1643
1233,1754,1625
1234,1756,1593
1235,1739,1610
1236,1752,1625
1237,1752,1645
1238,1740,1658
1239,1721,1686
1240,1710,1704
1241,1711,1694
1242,1738,1675
1243,1758,1642
1244,1767,1612
1245,1768,1622
1246,1774,1630
1247,1771,1647
1248,1769,1660
1249,1739,1679
1250,1739,1695
1251,1753,1689
1252,1784,1674
1253,1800,1630
1254,1818,1662
1255,1805,1722
1256,1789,1744
1257,1772,1768
1258,1770,1789
1259,1754,1862
1260,1726,1918
1261,1740,1962
1262,1754,1949
1263,1768,1959
1264,1770,1982
1265,1758,2030
1266,1738,2064
1267,1739,2121
1268,1726,2172
1269,1688,2219
1270,1672,2280
1271,1692,2296
1272,1708,2316
1273,1720,2327
1274,1694,2344
1275,1675,2379
1276,1688,2422
1277,1704,2443
1278,1677,2476
1279,1645,2539
1280,1644,2600
1281,1660,2607
1282,1676,2591
1283,1680,2575
1284,1675,2584
1285,1690,2639
1286,1688,2662
1287,1678,2666
1288,1672,2700
1289,1642,2760
1290,1632,2797
1291,1642,2796
1292,1676,2799
1293,1696,2762
1294,1692,2766
1295,1689,2781
1296,1680,2797
1297,1691,2843
1298,1705,2858
1299,1677,2888
1300,1677,2892
1301,1692,2891
1302,1706,2891
1303,1727,2873
1304,1735,2857
1305,1736,2872
1306,1727,2875
1307,1727,2876
1308,1727,2894
1309,1708,2938
1310,1705,2951
1311,1719,2925
1312,1743,2921
1313,1760,2873
1314,1768,2845
1315,1766,2846
1316,1769,2872
1317,1771,2890
1318,1775,2877
1319,1751,2904
1320,1743,2911
1321,1740,2908
1322,1759,2889
1323,1816,2846
1324,1832,2798
1325,1820,2795
1326,1819,2825
1327,1806,2823
1328,1804,2839
1329,1787,2831
1330,1800,2846
1331,1806,2826
1332,1832,2808
1333,1839,2765
1334,1850,2745
1335,1864,2702
1336,1853,2727
1337,1839,2744
1338,1836,2744
1339,1823,2764
1340,1834,2747
1341,1848,2746
1342,1867,2717
1343,1880,2670
1344,1880,2650
1345,1886,2621
1346,1881,2623
1347,1865,2636
1348,1855,2636
1349,1850,2648
1350,1833,2671
1351,1865,2652
1352,1881,2602
1353,1885,2552
1354,1898,2510
1355,1887,2522
1356,1870,2539
1357,1881,2540
1358,1884,2526
1359,1852,2553
1360,1839,2557
1361,1850,2550
1362,1881,2505
1363,1902,2460
1364,1901,2444
1365,1883,2426
1366,1871,2442
1367,1880,2458
1368,1896,2441
1369,1853,2471
1370,1851,2488
1371,1849,2462
1372,1879,2441
1373,1914,2394
1374,1902,2367
1375,1898,2365
1376,1882,2377
1377,1880,2380
1378,1883,2397
1379,1853,2411
1380,1847,2443
1381,1865,2414
1382,1880,2363
1383,1897,2335
1384,1885,2300
1385,1880,2298
1386,1882,2299
1387,1886,2313
1388,1895,2295
1389,1856,2298
1390,1850,2329
1391,1849,2313
1392,1864,2267
1393,1870,2238
1394,1884,2232
1395,1870,2223
1396,1871,2247
1397,1883,2235
1398,1867,2240
1399,1848,2249
1400,1832,2281
1401,1836,2283
1402,1871,2235
1403,1902,2200
1404,1912,2154
1405,1899,2154
1406,1879,2170
1407,1868,2156
1408,1872,2202
1409,1851,2182
1410,1838,2205
1411,1853,2188
1412,1855,2156
1413,1885,2124
1414,1880,2093
1415,1868,2091
1416,1869,2091
1417,1871,2095
1418,1866,2094
1419,1850,2138
1420,1832,2151
1421,1849,2139
1422,1880,2120
1423,1897,2087
1424,1896,2043
1425,1882,2047
1426,1870,2072
1427,1868,2062
1428,1868,2073
1429,1851,2091
1430,1831,2120
1431,1834,2095
1432,1850,2072
1433,1882,2056
1434,1870,2025
1435,1867,1998
1436,1855,2000
1437,1853,2025
1438,1849,2028
1439,1831,2045
1440,1807,2079
1441,1831,2073
1442,1839,2039
1443,1852,2007
1444,1855,1968
1445,1849,1965
1446,1849,1982
1447,1848,1993
1448,1849,2008
1449,1819,2012
1450,1804,2046
1451,1820,2041
1452,1823,2011
1453,1855,1965
1454,1852,1949
1455,1850,1936
1456,1839,1944
1457,1837,1961
1458,1835,1965
1459,1816,1992
1460,1799,1998
1461,1801,1983
1462,1819,1975
1463,1839,1948
1464,1865,1915
1465,1852,1899
1466,1864,1915
1467,1868,1930
1468,1855,1962
1469,1853,1977
1470,1850,1999
1471,1821,1991
1472,1831,1979
1473,1868,1949
1474,1884,1930
1475,1872,1918
1476,1883,1961
1477,1850,1945
1478,1848,1964
1479,1847,1975
1480,1824,1999
1481,1831,1999
1482,1852,1961
1483,1898,1943
1484,1896,1912
1485,1880,1914
1486,1868,1926
1487,1879,1932
1488,1868,1949
1489,1855,1975
1490,1851,2007
1491,1864,1993
1492,1866,1950
1493,1901,1920
1494,1898,1902
1495,1880,1901
1496,1864,1915
1497,1880,1949
1498,1866,1930
1499,1866,1979
1500,1839,1967
1501,1833,1967
1502,1846,1943
1503,1883,1927
1504,1900,1887
1505,1896,1886
1506,1883,1900
1507,1868,1904
1508,1854,1901
1509,1851,1930
1510,1824,1949
1511,1838,1960
1512,1851,1929
1513,1870,1896
1514,1868,1870
1515,1881,1866
1516,1869,1896
1517,1852,1902
1518,1848,1885
1519,1836,1930
1520,1832,1947
1521,1838,1932
1522,1851,1911
1523,1871,1881
1524,1883,1834
1525,1883,1851
1526,1856,1852
1527,1851,1865
1528,1852,1869
1529,1839,1883
1530,1819,1913
1531,1819,1904
1532,1837,1869
1533,1867,1851
1534,1867,1832
1535,1864,1815
1536,1851,1833
1537,1840,1853
1538,1836,1863
1539,1818,1888
1540,1805,1911
1541,1815,1899
1542,1836,1880
1543,1851,1848
1544,1855,1819
1545,1863,1833
1546,1850,1834
1547,1848,1835
1548,1849,1864
1549,1816,1880
1550,1804,1916
1551,1805,1927
1552,1834,1886
1553,1851,1840
1554,1852,1822
1555,1847,1823
1556,1835,1823
1557,1823,1839
1558,1832,1867
1559,1816,1881
1560,1806,1915
1561,1804,1913
1562,1818,1870
1563,1853,1851
1564,1853,1819
1565,1852,1815
1566,1834,1835
1567,1832,1852
1568,1831,1853
1569,1807,1880
1570,1804,1901
1571,1817,1912
1572,1832,1883
1573,1852,1851
1574,1866,1833
1575,1853,1818
1576,1852,1833
1577,1851,1835
1578,1836,1853
1579,1824,1871
1580,1823,1900
1581,1820,1869
1582,1832,1849
1583,1852,1824
1584,1866,1806
1585,1869,1805
1586,1869,1836
1587,1864,1866
1588,1850,1832
1589,1822,1787
1590,1802,1775
1591,1802,1785
1592,1817,1756
1593,1831,1709
1594,1819,1655
1595,1808,1625
1596,1804,1608
1597,1784,1596
1598,1774,1584
1599,1753,1564
1600,1724,1536
1601,1723,1501
1602,1735,1455
1603,1737,1401
1604,1736,1323
1605,1718,1289
1606,1708,1260
1607,1690,1257
1608,1664,1227
1609,1628,1196
1610,1610,1208
1611,1611,1164
1612,1630,1087
1613,1639,1016
1614,1624,985
1615,1609,939
1616,1592,927
1617,1578,907
1618,1560,876
1619,1529,889
1620,1518,877
1621,1517,840
1622,1516,777
1623,1535,716
1624,1549,687
1625,1545,667
1626,1549,638
1627,1545,621
1628,1532,606
1629,1512,601
1630,1499,616
1631,1517,585
1632,1530,523
1633,1560,493
1634,1560,446
1635,1552,439
1636,1546,408
1637,1543,409
1638,1545,411
1639,1532,413
1640,1502,442
1641,1502,439
1642,1535,409
1643,1564,348
1644,1564,315
1645,1552,302
1646,1549,330
1647,1548,333
1648,1544,334
1649,1531,367
1650,1532,405
1651,1545,411
1652,1562,399
1653,1591,395
1654,1591,394
1655,1581,412
1656,1579,444
1657,1581,489
1658,1581,503
1659,1564,551
1660,1560,606
1661,1567,636
1662,1591,622
1663,1612,619
1664,1625,607
1665,1628,622
1666,1627,665
1667,1625,681
1668,1614,700
1669,1610,733
1670,1610,793
1671,1627,812
1672,1658,808
1673,1677,779
1674,1678,767
1675,1679,780
1676,1674,813
1677,1673,855
1678,1661,864
1679,1648,893
1680,1641,943
1681,1656,954
1682,1672,954
1683,1694,943
1684,1706,927
1685,1692,937
1686,1706,955
1687,1695,986
1688,1691,1000
1689,1678,1040
1690,1659,1080
1691,1663,1085
1692,1692,1084
1693,1709,1056
1694,1720,1050
1695,1723,1051
1696,1721,1072
1697,1709,1116
1698,1704,1135
1699,1676,1160
1700,1673,1207
1701,1673,1196
1702,1704,1190
1703,1724,1163
1704,1737,1151
1705,1727,1161
1706,1726,1183
1707,1721,1198
1708,1712,1212
1709,1707,1244
1710,1693,1276
1711,1704,1291
1712,1721,1272
1713,1751,1245
1714,1755,1215
1715,1752,1229
1716,1744,1258
1717,1743,1278
1718,1740,1291
1719,1723,1307
1720,1712,1355
1721,1721,1357
1722,1738,1342
1723,1755,1320
1724,1773,1305
1725,1774,1303
1726,1772,1327
1727,1768,1353
1728,1756,1369
1729,1738,1403
1730,1724,1449
1731,1726,1454
1732,1755,1434
1733,1784,1406
1734,1786,1385
1735,1783,1376
1736,1774,1392
1737,1784,1431
1738,1775,1439
1739,1754,1464
1740,1740,1496
1741,1752,1499
1742,1768,1483
1743,1802,1454
1744,1792,1435
1745,1790,1438
1746,1787,1452
1747,1786,1479
1748,1772,1485
1749,1754,1514
1750,1736,1559
1751,1742,1550
1752,1759,1531
1753,1785,1516
1754,1788,1487
1755,1785,1481
1756,1775,1496
1757,1770,1514
1758,1770,1530
1759,1741,1549
1760,1737,1579
1761,1740,1579
1762,1755,1558
1763,1783,1518
1764,1787,1503
1765,1775,1515
1766,1785,1544
1767,1783,1548
1768,1782,1552
1769,1753,1567
1770,1740,1609
1771,1755,1616
1772,1769,1594
1773,1790,1552
1774,1807,1545
1775,1801,1547
1776,1800,1544
1777,1790,1563
1778,1784,1580
1779,1768,1596
1780,1756,1639
1781,1756,1656
1782,1771,1625
1783,1803,1580
1784,1800,1565
1785,1800,1577
1786,1787,1580
1787,1792,1597
1788,1786,1611
1789,1769,1625
1790,1758,1657
1791,1770,1660
1792,1785,1644
1793,1807,1624
1794,1820,1583
1795,1816,1592
1796,1804,1608
1797,1806,1627
1798,1803,1641
1799,1786,1646
1800,1784,1687
1801,1787,1663
1802,1821,1659
1803,1856,1705
1804,1867,1707
1805,1850,1694
1806,1839,1737
1807,1819,1789
1808,1818,1832
1809,1818,1900
1810,1790,1944
1811,1799,1991
1812,1820,2025
1813,1816,2013
1814,1820,2043
1815,1818,2074
1816,1806,2120
1817,1800,2158
1818,1788,2220
1819,1769,2270
1820,1757,2334
1821,1754,2376
1822,1770,2392
1823,1785,2380
1824,1787,2406
1825,1772,2414
1826,1767,2456
1827,1769,2510
1828,1758,2523
1829,1743,2586
1830,1721,2632
1831,1737,2656
1832,1726,2668
1833,1751,2666
1834,1784,2651
1835,1770,2649
1836,1785,2700
1837,1776,2719
1838,1776,2747
1839,1770,2762
1840,1756,2809
1841,1755,2829
1842,1773,2830
1843,1816,2810
1844,1835,2777
1845,1864,2810
1846,1855,2799
1847,1849,2840
1848,1839,2846
1849,1818,2872
1850,1816,2905
1851,1832,2896
1852,1854,2890
1853,1888,2857
1854,1912,2829
1855,1930,2832
1856,1929,2843
1857,1916,2862
1858,1912,2843
1859,1900,2872
1860,1884,2908
1861,1898,2905
1862,1912,2872
1863,1949,2842
1864,1966,2811
1865,1960,2810
1866,1947,2809
1867,1964,2815
1868,1981,2799
1869,1964,2826
1870,1945,2860
1871,1945,2859
1872,1980,2843
1873,2023,2793
1874,2016,2776
1875,1997,2766
1876,2008,2782
1877,2016,2779
1878,2014,2762
1879,1983,2776
1880,1966,2812
1881,1976,2792
1882,1996,2767
1883,2012,2734
1884,2024,2701
1885,2012,2697
1886,2009,2701
1887,2016,2683
1888,2013,2686
1889,1992,2699
1890,1995,2719
1891,1996,2715
1892,2012,2704
1893,2009,2638
1894,2008,2632
1895,2007,2599
1896,2025,2590
1897,2030,2573
1898,2009,2587
1899,1961,2602
1900,1945,2633
1901,1964,2616
1902,2008,2584
1903,2008,2553
1904,1997,2504
1905,1980,2503
1906,1996,2507
1907,1997,2504
1908,1991,2504
1909,1962,2522
1910,1949,2510
1911,1960,2509
1912,1982,2490
1913,1991,2463
1914,1997,2431
1915,1996,2414
1916,1997,2409
1917,1995,2427
1918,1979,2428
1919,1963,2447
1920,1973,2463
1921,1967,2474
1922,1979,2443
1923,1979,2396
1924,1980,2345
1925,1995,2335
1926,1998,2331
1927,1991,2346
1928,1963,2351
1929,1945,2377
1930,1961,2375
1931,1959,2362
1932,1960,2346
1933,1963,2303
1934,1980,2284
1935,1997,2281
1936,1994,2270
1937,1964,2282
1938,1960,2272
1939,1932,2287
1940,1948,2317
1941,1949,2297
1942,1960,2270
1943,1966,2233
1944,1963,2203
1945,1981,2200
1946,1967,2199
1947,1960,2204
1948,1928,2216
1949,1919,2217
1950,1948,2249
1951,1950,2238
1952,1945,2206
1953,1945,2174
1954,1961,2153
1955,1962,2137
1956,1959,2121
1957,1947,2141
1958,1934,2135
1959,1934,2153
1960,1918,2169
1961,1930,2175
1962,1932,2139
1963,1965,2124
1964,1963,2079
1965,1947,2073
1966,1963,2077
1967,1950,2088
1968,1950,2093
1969,1945,2106
1970,1950,2122
1971,1960,2106
1972,1965,2103
1973,1983,2064
1974,1989,2013
1975,1992,2022
1976,1994,2024
1977,1990,2032
1978,1979,2044
1979,1965,2064
1980,1960,2121
1981,1948,2088
1982,1976,2076
1983,1991,2061
1984,2013,2013
1985,2013,1999
1986,1996,2013
1987,1980,1999
1988,1976,2025
1989,1966,2027
1990,1964,2040
1991,1982,2061
1992,1980,2045
1993,2011,2027
1994,2026,1984
1995,2039,1980
1996,2025,1979
1997,2012,1997
1998,2011,2008
1999,1995,2013
2000,1994,2042
2001,2011,2058
2002,2027,2041
2003,2042,1993
2004,2041,1948
2005,2046,1947
2006,2056,1947
2007,2028,1963
2008,2007,1951
2009,1995,1976
2010,1995,1996
2011,2015,1996
2012,2060,1976
2013,2076,1932
2014,2064,1894
2015,2060,1888
2016,2045,1895
2017,2024,1898
2018,2032,1927
2019,2010,1928
2020,1982,1949
2021,1979,1950
2022,1992,1944
2023,2010,1912
2024,2031,1879
2025,2006,1864
2026,1994,1887
2027,1979,1887
2028,1982,1898
2029,1967,1912
2030,1929,1944
2031,1929,1934
2032,1947,1928
2033,1976,1888
2034,1966,1850
2035,1945,1852
2036,1950,1854
2037,1944,1881
2038,1917,1881
2039,1913,1885
2040,1912,1929
2041,1899,1934
2042,1913,1896
2043,1934,1870
2044,1951,1832
2045,1943,1832
2046,1934,1836
2047,1927,1850
2048,1930,1866
2049,1917,1869
2050,1901,1904
2051,1884,1886
2052,1900,1865
2053,1934,1823
2054,1935,1791
2055,1930,1800
2056,1917,1806
2057,1916,1808
2058,1930,1821
2059,1897,1846
2060,1863,1866
2061,1866,1883
2062,1895,1865
2063,1912,1835
2064,1918,1801
2065,1913,1802
2066,1917,1820
2067,1902,1832
2068,1883,1822
2069,1870,1864
2070,1865,1870
2071,1864,1881
2072,1879,1868
2073,1903,1835
2074,1912,1805
2075,1913,1806
2076,1895,1807
2077,1880,1820
2078,1872,1838
2079,1854,1848
2080,1850,1872
2081,1852,1871
2082,1850,1852
2083,1866,1833
2084,1901,1817
2085,1901,1785
2086,1899,1783
2087,1928,1786
2088,1919,1801
2089,1884,1834
2090,1867,1896
2091,1866,1884
2092,1895,1867
2093,1903,1823
2094,1931,1816
2095,1916,1801
2096,1947,1832
2097,1934,1818
2098,1942,1839
2099,1901,1866
2100,1920,1902
2101,1964,1886
2102,1966,1871
2103,1961,1834
2104,1965,1836
2105,2012,1819
2106,1993,1818
2107,1976,1848
2108,1947,1849
2109,1945,1849
2110,1948,1897
2111,1935,1886
2112,1964,1887
2113,1977,1836
2114,1995,1804
2115,1982,1791
2116,1964,1790
2117,1947,1820
2118,1933,1832
2119,1914,1838
2120,1915,1883
2121,1897,1878
2122,1912,1851
2123,1917,1822
2124,1930,1801
2125,1929,1791
2126,1930,1803
2127,1931,1806
2128,1929,1821
2129,1901,1832
2130,1872,1865
2131,1881,1869
2132,1898,1840
2133,1919,1815
2134,1931,1788
2135,1929,1758
2136,1916,1774
2137,1913,1800
2138,1961,1815
2139,1900,1817
2140,1855,1870
2141,1863,1870
2142,1886,1853
2143,1897,1816
2144,1913,1791
2145,1904,1791
2146,1896,1805
2147,1894,1804
2148,1881,1822
2149,1850,1863
2150,1851,1869
2151,1867,1849
2152,1884,1806
2153,1898,1791
2154,1901,1784
2155,1886,1782
2156,1894,1791
2157,1880,1801
2158,1854,1806
2159,1867,1849
2160,1855,1851
2161,1864,1835
2162,1883,1789
2163,1900,1768
2164,1897,1756
2165,1885,1756
2166,1883,1775
2167,1882,1790
2168,1849,1790
2169,1832,1819
2170,1823,1833
2171,1852,1801
2172,1883,1769
2173,1882,1754
2174,1880,1753
2175,1883,1757
2176,1880,1775
2177,1851,1786
2178,1838,1805
2179,1818,1848
2180,1820,1849
2181,1837,1832
2182,1871,1803
2183,1882,1770
2184,1870,1760
2185,1862,1775
2186,1866,1788
2187,1880,1800
2188,1867,1818
2189,1833,1850
2190,1832,1865
2191,1834,1851
2192,1836,1831
2193,1852,1787
2194,1865,1803
2195,1903,1821
2196,1913,1833
2197,1870,1785
2198,1823,1742
2199,1773,1769
2200,1773,1756
2201,1786,1752
2202,1788,1693
2203,1755,1624
2204,1738,1583
2205,1709,1562
2206,1704,1550
2207,1688,1515
2208,1656,1484
2209,1609,1515
2210,1596,1496
2211,1582,1418
2212,1579,1354
2213,1563,1303
2214,1528,1272
2215,1500,1246
2216,1481,1228
2217,1448,1182
2218,1420,1178
2219,1389,1194
2220,1368,1176
2221,1356,1115
2222,1370,1055
2223,1368,1006
2224,1353,968
2225,1339,923
2226,1326,924
2227,1304,909
2228,1275,890
2229,1260,905
2230,1246,877
2231,1240,840
2232,1257,795
2233,1272,735
2234,1262,703
2235,1257,668
2236,1243,672
2237,1241,681
2238,1212,671
2239,1194,686
2240,1193,683
2241,1199,652
2242,1229,601
2243,1240,555
2244,1228,535
2245,1240,526
2246,1212,541
2247,1199,540
2248,1196,539
2249,1181,575
2250,1181,574
2251,1196,554
2252,1214,536
2253,1243,494
2254,1248,492
2255,1259,508
2256,1261,551
2257,1255,583
2258,1256,603
2259,1246,665
2260,1240,688
2261,1261,688
2262,1296,666
2263,1324,652
2264,1333,666
2265,1324,688
2266,1321,728
2267,1320,748
2268,1312,781
2269,1310,826
2270,1310,846
2271,1326,862
2272,1353,841
2273,1371,828
2274,1374,844
2275,1370,859
2276,1373,890
2277,1374,921
2278,1368,937
2279,1356,987
2280,1358,1000
2281,1386,989
2282,1404,959
2283,1422,952
2284,1422,951
2285,1436,973
2286,1439,991
2287,1447,1003
2288,1435,1039
2289,1416,1101
2290,1435,1132
2291,1463,1116
2292,1494,1088
2293,1514,1080
2294,1512,1081
2295,1514,1098
2296,1502,1129
2297,1504,1145
2298,1496,1151
2299,1480,1206
2300,1485,1225
2301,1512,1209
2302,1532,1178
2303,1548,1148
2304,1546,1150
2305,1545,1176
2306,1547,1197
2307,1545,1215
2308,1532,1230
2309,1517,1279
2310,1528,1293
2311,1544,1288
2312,1561,1263
2313,1581,1244
2314,1577,1215
2315,1579,1229
2316,1577,1271
2317,1565,1291
2318,1560,1295
2319,1547,1357
2320,1547,1374
2321,1567,1382
2322,1597,1343
2323,1622,1323
2324,1615,1324
2325,1615,1340
2326,1609,1357
2327,1610,1374
2328,1597,1399
2329,1583,1436
2330,1578,1468
2331,1595,1451
2332,1616,1415
2333,1632,1383
2334,1630,1385
2335,1631,1400
2336,1640,1415
2337,1627,1437
2338,1614,1454
2339,1608,1498
2340,1608,1514
2341,1627,1496
2342,1656,1469
2343,1675,1434
2344,1657,1432
2345,1656,1438
2346,1657,1467
2347,1657,1484
2348,1642,1498
2349,1627,1535
2350,1629,1561
2351,1642,1548
2352,1675,1531
2353,1690,1501
2354,1703,1498
2355,1678,1500
2356,1689,1529
2357,1687,1534
2358,1677,1547
2359,1657,1594
2360,1656,1598
2361,1674,1596
2362,1689,1560
2363,1706,1519
2364,1704,1517
2365,1709,1533
2366,1690,1550
2367,1687,1564
2368,1675,1591
2369,1656,1640
2370,1656,1627
2371,1672,1624
2372,1691,1596
2373,1710,1548
2374,1706,1547
2375,1694,1561
2376,1691,1596
2377,1692,1609
2378,1679,1624
2379,1656,1645
2380,1658,1660
2381,1672,1640
2382,1692,1609
2383,1722,1580
2384,1725,1578
2385,1721,1579
2386,1707,1596
2387,1692,1612
2388,1688,1629
2389,1663,1663
2390,1660,1671
2391,1675,1657
2392,1694,1629
2393,1704,1594
2394,1706,1593
2395,1710,1596
2396,1707,1625
2397,1694,1642
2398,1688,1656
2399,1674,1688
2400,1677,1693
2401,1692,1677
2402,1720,1657
2403,1734,1625
2404,1724,1616
2405,1720,1615
2406,1720,1644
2407,1720,1654
2408,1705,1661
2409,1688,1709
2410,1678,1721
2411,1707,1720
2412,1725,1672
2413,1724,1624
2414,1726,1625
2415,1726,1643
2416,1726,1672
2417,1720,1675
2418,1708,1679
2419,1690,1737
2420,1692,1737
2421,1707,1721
2422,1736,1687
2423,1741,1642
2424,1739,1646
2425,1739,1644
2426,1740,1646
2427,1741,1676
2428,1735,1690
2429,1707,1725
2430,1704,1738
2431,1720,1723
2432,1742,1690
2433,1752,1655
2434,1738,1645
2435,1738,1648
2436,1735,1688
2437,1723,1693
2438,1720,1706
2439,1705,1739
2440,1706,1754
2441,1708,1739
2442,1738,1721
2443,1755,1679
2444,1757,1675
2445,1757,1690
2446,1751,1706
2447,1742,1708
2448,1734,1725
2449,1711,1752
2450,1719,1772
2451,1735,1768
2452,1754,1728
2453,1768,1694
2454,1767,1676
2455,1772,1676
2456,1759,1705
2457,1758,1720
2458,1755,1738
2459,1727,1768
2460,1725,1774
2461,1738,1757
2462,1759,1738
2463,1784,1704
2464,1784,1678
2465,1784,1687
2466,1785,1710
2467,1786,1720
2468,1782,1724
2469,1770,1742
2470,1770,1755
2471,1787,1784
2472,1815,1788
2473,1824,1770
2474,1807,1783
2475,1788,1822
2476,1784,1852
2477,1803,1902
2478,1792,1944
2479,1752,2009
2480,1754,2057
2481,1774,2105
2482,1789,2093
2483,1802,2091
2484,1801,2107
2485,1790,2159
2486,1786,2202
2487,1783,2283
2488,1769,2328
2489,1750,2384
2490,1743,2425
2491,1757,2416
2492,1775,2441
2493,1785,2442
2494,1785,2461
2495,1775,2478
2496,1784,2509
2497,1800,2551
2498,1772,2601
2499,1742,2655
2500,1770,2686
2501,1785,2686
2502,1802,2700
2503,1821,2680
2504,1824,2671
2505,1833,2671
2506,1839,2719
2507,1821,2742
2508,1804,2781
2509,1802,2823
2510,1806,2842
2511,1820,2796
2512,1838,2795
2513,1866,2780
2514,1848,2767
2515,1852,2791
2516,1849,2797
2517,1847,2812
2518,1823,2829
2519,1817,2876
2520,1830,2888
2521,1834,2861
2522,1837,2812
2523,1853,2782
2524,1839,2760
2525,1849,2781
2526,1851,2796
2527,1837,2799
2528,1835,2793
2529,1818,2813
2530,1836,2859
2531,1837,2815
2532,1865,2808
2533,1880,2750
2534,1881,2732
2535,1883,2741
2536,1868,2744
2537,1868,2750
2538,1880,2749
2539,1866,2777
2540,1836,2792
2541,1839,2762
2542,1885,2748
2543,1894,2687
2544,1896,2684
2545,1879,2683
2546,1871,2696
2547,1869,2686
2548,1880,2685
2549,1832,2698
2550,1819,2729
2551,1837,2700
2552,1864,2633
2553,1883,2589
2554,1871,2569
2555,1865,2588
2556,1838,2599
2557,1837,2588
2558,1850,2584
2559,1807,2603
2560,1804,2606
2561,1818,2560
2562,1849,2526
2563,1854,2492
2564,1848,2461
2565,1820,2477
2566,1823,2495
2567,1835,2477
2568,1822,2488
2569,1787,2488
2570,1799,2508
2571,1807,2492
2572,1818,2446
2573,1833,2410
2574,1850,2381
2575,1835,2378
2576,1820,2396
2577,1804,2410
2578,1783,2409
2579,1767,2413
2580,1773,2429
2581,1784,2414
2582,1800,2377
2583,1816,2334
2584,1822,2316
2585,1820,2286
2586,1789,2314
2587,1790,2316
2588,1771,2316
2589,1756,2362
2590,1752,2346
2591,1758,2328
2592,1784,2297
2593,1800,2252
2594,1789,2250
2595,1786,2234
2596,1784,2252
2597,1774,2249
2598,1771,2248
2599,1741,2281
2600,1753,2296
2601,1769,2268
2602,1788,2218
2603,1801,2173
2604,1787,2170
2605,1773,2168
2606,1771,2186
2607,1773,2182
2608,1772,2173
2609,1736,2220
2610,1723,2221
2611,1742,2205
2612,1770,2155
2613,1785,2123
2614,1769,2094
2615,1789,2118
2616,1801,2108
2617,1784,2120
2618,1757,2108
2619,1738,2168
2620,1721,2184
2621,1727,2160
2622,1770,2106
2623,1770,2046
2624,1788,2060
2625,1769,2060
2626,1769,2079
2627,1768,2062
2628,1753,2062
2629,1721,2093
2630,1708,2125
2631,1718,2110
2632,1767,2089
2633,1787,2039
2634,1775,2045
2635,1758,2042
2636,1775,2072
2637,1784,2042
2638,1768,2056
2639,1724,2105
2640,1720,2123
2641,1753,2107
2642,1787,2043
2643,1789,2008
2644,1782,1994
2645,1756,2024
2646,1758,2041
2647,1770,2029
2648,1785,2027
2649,1742,2043
2650,1736,2076
2651,1743,2061
2652,1785,2008
2653,1802,1962
2654,1790,1961
2655,1768,1967
2656,1757,1991
2657,1770,1980
2658,1767,1976
2659,1720,2039
2660,1721,2044
2661,1737,2028
2662,1774,1982
2663,1768,1932
2664,1767,1944
2665,1769,1975
2666,1771,1963
2667,1782,1959
2668,1770,1975
2669,1720,2013
2670,1704,2040
2671,1736,2014
2672,1770,1977
2673,1787,1916
2674,1768,1918
2675,1768,1945
2676,1772,1959
2677,1768,1950
2678,1739,1946
2679,1721,1994
2680,1738,2013
2681,1752,1991
2682,1758,1946
2683,1775,1903
2684,1784,1886
2685,1789,1899
2686,1785,1913
2687,1773,1914
2688,1758,1902
2689,1741,1947
2690,1740,1961
2691,1755,1948
2692,1773,1911
2693,1791,1864
2694,1789,1851
2695,1788,1853
2696,1785,1883
2697,1774,1886
2698,1770,1879
2699,1743,1914
2700,1752,1928
2701,1759,1901
2702,1773,1865
2703,1791,1848
2704,1786,1821
2705,1790,1836
2706,1799,1848
2707,1775,1852
2708,1776,1882
2709,1756,1886
2710,1757,1915
2711,1769,1912
2712,1785,1854
2713,1800,1836
2714,1804,1832
2715,1817,1821
2716,1801,1834
2717,1790,1850
2718,1786,1864
2719,1770,1896
2720,1768,1901
2721,1756,1886
2722,1784,1854
2723,1791,1819
2724,1805,1803
2725,1803,1815
2726,1799,1823
2727,1787,1850
2728,1775,1851
2729,1769,1883
2730,1768,1887
2731,1772,1896
2732,1789,1852
2733,1808,1818
2734,1816,1816
2735,1805,1805
2736,1816,1833
2737,1803,1818
2738,1789,1834
2739,1770,1869
2740,1759,1881
2741,1788,1868
2742,1804,1834
2743,1821,1801
2744,1822,1774
2745,1815,1802
2746,1807,1831
2747,1805,1837
2748,1802,1855
2749,1783,1881
2750,1772,1885
2751,1790,1872
2752,1806,1831
2753,1823,1804
2754,1832,1785
2755,1822,1788
2756,1817,1816
2757,1805,1835
2758,1804,1848
2759,1782,1870
2760,1784,1870
2761,1800,1863
2762,1832,1851
2763,1839,1804
2764,1832,1801
2765,1821,1807
2766,1805,1822
2767,1805,1849
2768,1820,1852
2769,1801,1884
2770,1784,1901
2771,1802,1884
2772,1822,1853
2773,1850,1832
2774,1851,1807
2775,1849,1818
2776,1838,1852
2777,1824,1869
2778,1834,1879
2779,1822,1897
2780,1821,1917
2781,1822,1903
2782,1848,1887
2783,1864,1835
2784,1884,1832
2785,1880,1803
2786,1866,1832
2787,1840,1848
2788,1848,1851
2789,1847,1884
2790,1847,1887
2791,1850,1865
2792,1850,1831
2793,1866,1801
2794,1867,1800
2795,1868,1801
2796,1855,1821
2797,1847,1822
2798,1833,1839
2799,1805,1871
2800,1803,1895
2801,1820,1887
2802,1853,1850
2803,1864,1803
2804,1867,1815
2805,1856,1805
2806,1854,1807
2807,1853,1822
2808,1850,1848
2809,1820,1868
2810,1822,1899
2811,1821,1880
2812,1853,1840
2813,1871,1815
2814,1869,1807
2815,1865,1806
2816,1852,1817
2817,1838,1820
2818,1839,1833
2819,1822,1869
2820,1819,1882
2821,1819,1866
2822,1848,1848
2823,1855,1800
2824,1848,1788
2825,1852,1805
2826,1851,1815
2827,1852,1833
2828,1848,1831
2829,1823,1879
2830,1821,1880
2831,1821,1864
2832,1851,1850
2833,1863,1814
2834,1866,1790
2835,1864,1802
2836,1864,1816
2837,1852,1832
2838,1833,1839
2839,1804,1878
2840,1816,1886
2841,1831,1913
2842,1851,1896
2843,1866,1790
2844,1849,1736
2845,1833,1737
2846,1816,1769
2847,1801,1752
2848,1770,1736
2849,1753,1756
2850,1740,1723
2851,1740,1689
2852,1756,1628
2853,1758,1584
2854,1751,1534
2855,1726,1498
2856,1719,1469
2857,1706,1451
2858,1691,1435
2859,1659,1424
2860,1658,1390
2861,1663,1360
2862,1664,1306
2863,1673,1228
2864,1661,1163
2865,1656,1152
2866,1644,1117
2867,1646,1096
2868,1641,1063
2869,1609,1052
2870,1597,1063
2871,1597,1003
2872,1623,936
2873,1644,859
2874,1640,813
2875,1641,797
2876,1625,791
2877,1606,778
2878,1595,745
2879,1568,745
2880,1575,730
2881,1581,683
2882,1591,637
2883,1596,599
2884,1608,568
2885,1594,524
2886,1582,508
2887,1583,510
2888,1592,492
2889,1576,520
2890,1574,511
2891,1580,477
2892,1608,458
2893,1629,398
2894,1626,378
2895,1624,390
2896,1625,382
2897,1626,412
2898,1616,373
2899,1592,411
2900,1579,424
2901,1579,424
2902,1611,380
2903,1639,360
2904,1644,344
2905,1647,363
2906,1648,394
2907,1647,440
2908,1647,455
2909,1614,504
2910,1610,554
2911,1625,555
2912,1644,557
2913,1662,537
2914,1671,540
2915,1676,567
2916,1688,603
2917,1676,634
2918,1677,668
2919,1659,713
2920,1663,743
2921,1676,763
2922,1693,747
2923,1721,748
2924,1725,742
2925,1724,760
2926,1726,796
2927,1736,824
2928,1723,845
2929,1710,890
2930,1720,921
2931,1719,922
2932,1741,912
2933,1759,888
2934,1770,888
2935,1771,907
2936,1769,939
2937,1784,953
2938,1773,971
2939,1752,1019
2940,1742,1040
2941,1756,1048
2942,1773,1037
2943,1801,1022
2944,1804,1006
2945,1803,1023
2946,1803,1065
2947,1787,1071
2948,1788,1097
2949,1771,1145
2950,1771,1164
2951,1783,1163
2952,1805,1148
2953,1821,1118
2954,1805,1129
2955,1816,1136
2956,1805,1160
2957,1807,1181
2958,1801,1199
2959,1786,1229
2960,1784,1261
2961,1786,1258
2962,1807,1247
2963,1833,1223
2964,1822,1223
2965,1821,1231
2966,1821,1247
2967,1808,1274
2968,1802,1290
2969,1774,1323
2970,1775,1342
2971,1800,1341
2972,1815,1323
2973,1835,1306
2974,1833,1287
2975,1822,1293
2976,1821,1305
2977,1819,1310
2978,1808,1312
2979,1790,1355
2980,1788,1384
2981,1798,1386
2982,1816,1355
2983,1833,1336
2984,1834,1325
2985,1831,1340
2986,1832,1369
2987,1822,1387
2988,1820,1400
2989,1800,1437
2990,1788,1448
2991,1804,1453
2992,1822,1448
2993,1836,1404
2994,1836,1404
2995,1832,1400
2996,1832,1415
2997,1822,1438
2998,1831,1453
2999,1802,1480
3000,1802,1501
3001,1806,1498
3002,1823,1481
3003,1848,1452
3004,1848,1448
3005,1835,1448
3006,1833,1464
3007,1823,1479
3008,1820,1497
3009,1790,1534
3010,1789,1551
3011,1806,1546
3012,1820,1527
3013,1834,1499
3014,1833,1485
3015,1835,1497
3016,1823,1517
3017,1821,1546
3018,1818,1559
3019,1800,1582
3020,1789,1608
3021,1791,1596
3022,1818,1583
3023,1848,1547
3024,1836,1529
3025,1834,1546
3026,1820,1567
3027,1823,1581
3028,1817,1600
3029,1801,1641
3030,1790,1656
3031,1790,1630
3032,1805,1608
3033,1823,1581
3034,1823,1562
3035,1819,1563
3036,1817,1582
3037,1806,1582
3038,1804,1580
3039,1786,1624
3040,1783,1631
3041,1792,1640
3042,1805,1614
3043,1822,1576
3044,1833,1565
3045,1834,1567
3046,1823,1593
3047,1820,1596
3048,1805,1610
3049,1787,1646
3050,1784,1658
3051,1786,1647
3052,1805,1626
3053,1832,1594
3054,1821,1583
3055,1817,1612
3056,1808,1630
3057,1807,1643
3058,1800,1640
3059,1775,1663
3060,1770,1693
3061,1783,1687
3062,1790,1654
3063,1806,1611
3064,1805,1606
3065,1802,1608
3066,1800,1625
3067,1786,1655
3068,1771,1656
3069,1752,1691
3070,1751,1711
3071,1755,1709
3072,1783,1688
3073,1803,1647
3074,1802,1630
3075,1788,1644
3076,1789,1657
3077,1800,1677
3078,1790,1676
3079,1771,1705
3080,1768,1725
3081,1768,1710
3082,1790,1704
3083,1818,1662
3084,1816,1646
3085,1804,1656
3086,1806,1687
3087,1802,1691
3088,1802,1693
3089,1786,1722
3090,1784,1739
3091,1775,1738
3092,1807,1721
3093,1823,1674
3094,1822,1656
3095,1816,1655
3096,1816,1675
3097,1805,1692
3098,1802,1705
3099,1788,1738
3100,1785,1752
3101,1785,1741
3102,1789,1722
3103,1816,1690
3104,1815,1677
3105,1807,1674
3106,1799,1691
3107,1790,1695
3108,1784,1718
3109,1755,1753
3110,1752,1784
3111,1756,1758
3112,1773,1736
3113,1802,1692
3114,1804,1690
3115,1803,1691
3116,1802,1709
3117,1800,1726
3118,1798,1735
3119,1772,1753
3120,1768,1786
3121,1775,1787
3122,1804,1757
3123,1833,1738
3124,1836,1706
3125,1831,1704
3126,1836,1722
3127,1832,1735
3128,1833,1753
3129,1806,1772
3130,1807,1786
3131,1806,1770
3132,1833,1724
3133,1868,1739
3134,1886,1756
3135,1869,1754
3136,1850,1799
3137,1832,1822
3138,1820,1863
3139,1804,1932
3140,1790,1979
3141,1801,1991
3142,1821,1994
3143,1823,2058
3144,1832,2124
3145,1807,2160
3146,1790,2216
3147,1769,2268
3148,1768,2314
3149,1775,2360
3150,1774,2352
3151,1791,2345
3152,1791,2349
3153,1790,2411
3154,1788,2446
3155,1771,2473
3156,1770,2508
3157,1752,2558
3158,1742,2602
3159,1738,2623
3160,1751,2619
3161,1757,2615
3162,1759,2605
3163,1742,2624
3164,1743,2679
3165,1741,2686
3166,1736,2696
3167,1696,2762
3168,1687,2792
3169,1694,2814
3170,1708,2776
3171,1735,2759
3172,1743,2751
3173,1743,2749
3174,1736,2808
3175,1720,2824
3176,1720,2843
3177,1692,2876
3178,1689,2876
3179,1691,2886
3180,1709,2873
3181,1740,2826
3182,1751,2814
3183,1741,2797
3184,1752,2827
3185,1737,2841
3186,1721,2843
3187,1710,2878
3188,1722,2907
3189,1738,2875
3190,1759,2860
3191,1775,2808
3192,1801,2795
3193,1803,2782
3194,1800,2809
3195,1801,2824
3196,1791,2828
3197,1786,2842
3198,1800,2858
3199,1805,2858
3200,1833,2812
3201,1855,2791
3202,1866,2750
3203,1898,2746
3204,1884,2768
3205,1871,2767
3206,1867,2792
3207,1864,2798
3208,1869,2824
3209,1869,2798
3210,1895,2797
3211,1912,2748
3212,1919,2729
3213,1917,2715
3214,1902,2717
3215,1885,2731
3216,1883,2727
3217,1869,2745
3218,1881,2776
3219,1886,2736
3220,1902,2703
3221,1930,2679
3222,1932,2647
3223,1919,2648
3224,1912,2639
3225,1903,2640
3226,1916,2649
3227,1902,2648
3228,1884,2671
3229,1881,2654
3230,1911,2632
3231,1945,2587
3232,1944,2540
3233,1931,2539
3234,1917,2541
3235,1897,2552
3236,1899,2552
3237,1871,2551
3238,1867,2559
3239,1865,2555
3240,1898,2526
3241,1917,2476
3242,1918,2446
3243,1902,2443
3244,1896,2454
3245,1881,2472
3246,1883,2457
3247,1886,2458
3248,1871,2488
3249,1867,2463
3250,1883,2441
3251,1917,2382
3252,1942,2348
3253,1919,2345
3254,1899,2362
3255,1898,2366
3256,1896,2380
3257,1888,2383
3258,1884,2395
3259,1912,2396
3260,1914,2360
3261,1950,2326
3262,1977,2288
3263,1964,2286
3264,1934,2299
3265,1943,2319
3266,1943,2313
3267,1951,2318
3268,1948,2332
3269,1943,2334
3270,1945,2303
3271,1976,2267
3272,1995,2236
3273,1992,2232
3274,1976,2248
3275,1960,2239
3276,1965,2268
3277,1965,2267
3278,1950,2282
3279,1934,2265
3280,1947,2235
3281,1977,2188
3282,1980,2168
3283,1978,2156
3284,1975,2158
3285,1964,2156
3286,1959,2154
3287,1932,2186
3288,1933,2199
3289,1930,2170
3290,1931,2159
3291,1951,2106
3292,1960,2078
3293,1949,2064
3294,1947,2075
3295,1934,2093
3296,1914,2107
3297,1884,2106
3298,1883,2143
3299,1882,2119
3300,1915,2090
3301,1932,2044
3302,1914,2014
3303,1913,1999
3304,1917,2031
3305,1900,2044
3306,1885,2030
3307,1867,2063
3308,1854,2093
3309,1868,2088
3310,1883,2046
3311,1885,2016
3312,1886,1996
3313,1884,1994
3314,1880,1999
3315,1865,2010
3316,1869,2024
3317,1834,2015
3318,1820,2047
3319,1832,2040
3320,1853,2011
3321,1885,1982
3322,1883,1964
3323,1880,1948
3324,1864,1960
3325,1872,1962
3326,1871,1963
3327,1840,1993
3328,1834,2009
3329,1835,1997
3330,1867,1978
3331,1882,1927
3332,1884,1912
3333,1882,1919
3334,1883,1915
3335,1880,1930
3336,1880,1934
3337,1849,1951
3338,1836,1976
3339,1849,1966
3340,1865,1935
3341,1894,1903
3342,1880,1880
3343,1872,1866
3344,1880,1884
3345,1864,1897
3346,1851,1898
3347,1823,1918
3348,1814,1963
3349,1831,1945
3350,1847,1904
3351,1865,1882
3352,1869,1866
3353,1868,1853
3354,1865,1882
3355,1854,1881
3356,1853,1886
3357,1835,1904
3358,1819,1935
3359,1820,1928
3360,1849,1912
3361,1871,1867
3362,1866,1849
3363,1869,1867
3364,1865,1869
3365,1853,1884
3366,1853,1901
3367,1838,1918
3368,1834,1960
3369,1835,1960
3370,1853,1930
3371,1884,1902
3372,1886,1879
3373,1879,1870
3374,1867,1885
3375,1869,1899
3376,1866,1900
3377,1848,1917
3378,1823,1946
3379,1823,1932
3380,1848,1918
3381,1880,1888
3382,1879,1867
3383,1882,1869
3384,1864,1881
3385,1854,1881
3386,1855,1887
3387,1834,1912
3388,1835,1934
3389,1836,1917
3390,1864,1901
3391,1883,1863
3392,1870,1831
3393,1867,1822
3394,1869,1821
3395,1870,1848
3396,1869,1852
3397,1853,1865
3398,1821,1901
3399,1836,1887
3400,1851,1864
3401,1870,1822
3402,1880,1804
3403,1880,1817
3404,1879,1834
3405,1866,1848
3406,1852,1838
3407,1835,1866
3408,1839,1896
3409,1840,1882
3410,1854,1856
3411,1881,1834
3412,1881,1806
3413,1869,1816
3414,1864,1818
3415,1850,1838
3416,1852,1836
3417,1820,1868
3418,1815,1896
3419,1807,1881
3420,1820,1847
3421,1838,1818
3422,1850,1789
3423,1840,1805
3424,1847,1831
3425,1823,1834
3426,1820,1835
3427,1804,1864
3428,1791,1885
3429,1807,1886
3430,1832,1868
3431,1839,1837
3432,1848,1805
3433,1835,1804
3434,1836,1816
3435,1836,1834
3436,1834,1836
3437,1816,1866
3438,1802,1901
3439,1792,1885
3440,1821,1866
3441,1838,1833
3442,1850,1805
3443,1850,1803
3444,1835,1820
3445,1833,1848
3446,1834,1849
3447,1818,1864
3448,1805,1896
3449,1820,1885
3450,1834,1869
3451,1848,1848
3452,1850,1816
3453,1854,1817
3454,1835,1821
3455,1837,1847
3456,1833,1835
3457,1815,1851
3458,1799,1884
3459,1807,1881
3460,1823,1848
3461,1855,1815
3462,1855,1790
3463,1853,1783
3464,1853,1791
3465,1850,1822
3466,1848,1822
3467,1824,1853
3468,1822,1885
3469,1822,1881
3470,1849,1869
3471,1870,1838
3472,1871,1816
3473,1884,1816
3474,1866,1831
3475,1852,1854
3476,1856,1871
3477,1868,1898
3478,1865,1951
3479,1879,1932
3480,1880,1855
3481,1883,1770
3482,1882,1739
3483,1896,1738
3484,1872,1753
3485,1866,1753
3486,1879,1725
3487,1851,1710
3488,1851,1721
3489,1870,1704
3490,1882,1657
3491,1898,1608
3492,1899,1531
3493,1916,1497
3494,1928,1482
3495,1916,1479
3496,1920,1436
3497,1911,1449
3498,1886,1436
3499,1886,1401
3500,1928,1354
3501,1944,1276
3502,1944,1229
3503,1947,1196
3504,1950,1166
3505,1931,1159
3506,1931,1118
3507,1904,1099
3508,1897,1114
3509,1894,1069
3510,1904,1021
3511,1930,967
3512,1917,892
3513,1896,862
3514,1870,846
3515,1864,840
3516,1836,813
3517,1788,813
3518,1750,811
3519,1738,784
3520,1757,743
3521,1752,682
3522,1738,638
3523,1739,618
3524,1708,604
3525,1678,600
3526,1656,591
3527,1615,606
3528,1599,614
3529,1599,587
3530,1599,541
3531,1597,509
3532,1595,488
3533,1583,472
3534,1576,460
3535,1535,459
3536,1518,461
3537,1486,489
3538,1470,494
3539,1471,489
3540,1485,464
3541,1500,428
3542,1501,408
3543,1502,408
3544,1502,430
3545,1495,459
3546,1485,475
3547,1468,523
3548,1454,571
3549,1468,589
3550,1497,574
3551,1515,568
3552,1520,570
3553,1514,573
3554,1504,617
3555,1503,651
3556,1502,679
3557,1497,704
3558,1485,760
3559,1498,766
3560,1518,777
3561,1550,761
3562,1560,748
3563,1565,766
3564,1566,792
3565,1568,825
3566,1564,848
3567,1565,887
3568,1552,922
3569,1565,924
3570,1593,923
3571,1614,904
3572,1627,878
3573,1632,894
3574,1640,922
3575,1631,942
3576,1630,967
3577,1600,989
3578,1598,1034
3579,1612,1051
3580,1628,1039
3581,1656,1030
3582,1661,1016
3583,1659,1022
3584,1659,1052
3585,1657,1082
3586,1655,1098
3587,1630,1131
3588,1624,1162
3589,1638,1181
3590,1646,1162
3591,1673,1143
3592,1692,1128
3593,1691,1131
3594,1691,1160
3595,1686,1179
3596,1680,1196
3597,1671,1211
3598,1661,1256
3599,1662,1260
3600,1677,1260
3601,1704,1243
3602,1708,1213
3603,1708,1216
3604,1720,1241
3605,1720,1256
3606,1707,1261
3607,1692,1291
3608,1678,1326
3609,1690,1327
3610,1720,1319
3611,1742,1292
3612,1742,1277
3613,1742,1287
3614,1737,1306
3615,1740,1325
3616,1737,1338
3617,1724,1343
3618,1706,1386
3619,1705,1403
3620,1720,1390
3621,1755,1370
3622,1769,1356
3623,1759,1357
3624,1758,1388
3625,1739,1418
3626,1740,1422
3627,1719,1450
3628,1707,1484
3629,1720,1498
3630,1723,1481
3631,1752,1468
3632,1753,1430
3633,1743,1435
3634,1743,1452
3635,1751,1470
3636,1743,1483
3637,1727,1487
3638,1708,1528
3639,1710,1533
3640,1724,1513
3641,1755,1479
3642,1760,1467
3643,1752,1453
3644,1741,1468
3645,1742,1497
3646,1751,1513
3647,1725,1520
3648,1709,1576
3649,1708,1576
3650,1724,1564
3651,1753,1531
3652,1755,1501
3653,1753,1515
3654,1752,1519
3655,1751,1533
3656,1739,1533
3657,1723,1561
3658,1723,1597
3659,1721,1614
3660,1739,1607
3661,1757,1561
3662,1771,1532
3663,1768,1545
3664,1767,1549
3665,1768,1576
3666,1757,1576
3667,1752,1608
3668,1740,1630
3669,1737,1626
3670,1754,1623
3671,1774,1581
3672,1790,1549
3673,1788,1561
3674,1785,1567
3675,1786,1581
3676,1770,1608
3677,1754,1613
3678,1741,1647
3679,1744,1648
3680,1758,1625
3681,1787,1596
3682,1789,1577
3683,1783,1580
3684,1771,1584
3685,1770,1609
3686,1769,1609
3687,1752,1643
3688,1735,1658
3689,1726,1673
3690,1752,1659
3691,1770,1629
3692,1775,1613
3693,1783,1612
3694,1772,1626
3695,1758,1642
3696,1758,1645
3697,1742,1663
3698,1739,1704
3699,1740,1706
3700,1754,1691
3701,1773,1659
3702,1774,1627
3703,1773,1628
3704,1772,1643
3705,1769,1663
3706,1758,1672
3707,1742,1703
3708,1722,1736
3709,1725,1735
3710,1740,1719
3711,1768,1692
3712,1772,1643
3713,1768,1659
3714,1768,1675
3715,1753,1678
3716,1753,1688
3717,1736,1705
3718,1726,1737
3719,1727,1740
3720,1744,1737
3721,1769,1693
3722,1773,1662
3723,1759,1672
3724,1773,1679
3725,1768,1694
3726,1769,1694
3727,1753,1719
3728,1737,1740
3729,1751,1740
3730,1768,1720
3731,1776,1692
3732,1788,1658
3733,1786,1663
3734,1786,1662
3735,1782,1679
3736,1774,1687
3737,1753,1708
3738,1742,1739
3739,1742,1740
3740,1768,1726
3741,1790,1709
3742,1791,1672
3743,1791,1670
3744,1791,1676
3745,1784,1692
3746,1784,1707
3747,1768,1721
3748,1743,1768
3749,1752,1768
3750,1770,1756
3751,1787,1723
3752,1800,1704
3753,1789,1689
3754,1788,1709
3755,1784,1721
3756,1785,1724
3757,1768,1737
3758,1751,1758
3759,1752,1775
3760,1772,1755
3761,1799,1720
3762,1815,1691
3763,1803,1703
3764,1806,1705
3765,1804,1705
3766,1800,1721
3767,1785,1737
3768,1774,1768
3769,1784,1771
3770,1801,1741
3771,1819,1726
3772,1832,1693
3773,1823,1695
3774,1834,1709
3775,1833,1719
3776,1822,1722
3777,1815,1742
3778,1802,1768
3779,1816,1769
3780,1823,1739
3781,1863,1768
3782,1864,1757
3783,1847,1768
3784,1836,1785
3785,1819,1822
3786,1817,1864
3787,1801,1900
3788,1784,1959
3789,1783,1996
3790,1788,2010
3791,1807,2009
3792,1819,1996
3793,1806,2043
3794,1786,2075
3795,1775,2124
3796,1774,2156
3797,1757,2206
3798,1739,2280
3799,1719,2318
3800,1727,2333
3801,1755,2329
3802,1773,2284
3803,1767,2320
3804,1742,2350
3805,1728,2395
3806,1724,2424
3807,1709,2440
3808,1690,2478
3809,1692,2490
3810,1706,2495
3811,1727,2491
3812,1741,2472
3813,1737,2478
3814,1735,2478
3815,1722,2509
3816,1709,2526
3817,1691,2552
3818,1678,2585
3819,1672,2573
3820,1707,2585
3821,1723,2538
3822,1709,2507
3823,1707,2505
3824,1710,2523
3825,1707,2552
3826,1710,2589
3827,1688,2600
3828,1675,2650
3829,1672,2650
3830,1679,2637
3831,1703,2618
3832,1708,2607
3833,1719,2619
3834,1720,2620
3835,1710,2637
3836,1707,2666
3837,1674,2684
3838,1679,2747
3839,1689,2733
3840,1695,2713
3841,1707,2681
3842,1719,2652
3843,1723,2651
3844,1727,2669
3845,1725,2684
3846,1720,2680
3847,1703,2714
3848,1679,2732
3849,1686,2715
3850,1704,2714
3851,1711,2683
3852,1723,2654
3853,1737,2664
3854,1721,2635
3855,1723,2670
3856,1709,2679
3857,1694,2667
3858,1690,2716
3859,1694,2712
3860,1708,2699
3861,1722,2666
3862,1724,2617
3863,1738,2603
3864,1736,2603
3865,1738,2632
3866,1725,2635
3867,1709,2640
3868,1704,2668
3869,1696,2665
3870,1708,2651
3871,1726,2635
3872,1753,2575
3873,1757,2551
3874,1770,2583
3875,1743,2585
3876,1735,2590
3877,1722,2599
3878,1735,2638
3879,1739,2634
3880,1727,2618
3881,1766,2570
3882,1775,2511
3883,1784,2506
3884,1773,2488
3885,1771,2537
3886,1758,2525
3887,1757,2525
3888,1738,2553
3889,1735,2544
3890,1741,2519
3891,1768,2477
3892,1803,2456
3893,1806,2447
3894,1805,2424
3895,1791,2431
3896,1800,2441
3897,1784,2431
3898,1758,2473
3899,1772,2474
3900,1784,2413
3901,1806,2375
3902,1817,2331
3903,1805,2315
3904,1806,2313
3905,1806,2334
3906,1799,2327
3907,1783,2329
3908,1770,2363
3909,1769,2361
3910,1801,2328
3911,1820,2282
3912,1833,2248
3913,1830,2237
3914,1823,2236
3915,1817,2238
3916,1817,2238
3917,1802,2252
3918,1785,2271
3919,1783,2272
3920,1800,2238
3921,1832,2203
3922,1836,2172
3923,1832,2158
3924,1836,2168
3925,1833,2172
3926,1820,2171
3927,1803,2191
3928,1788,2237
3929,1790,2233
3930,1817,2202
3931,1831,2169
3932,1836,2119
3933,1834,2107
3934,1837,2107
3935,1834,2122
3936,1821,2108
3937,1803,2124
3938,1798,2155
3939,1786,2157
3940,1816,2136
3941,1836,2108
3942,1848,2062
3943,1848,2072
3944,1840,2064
3945,1838,2088
3946,1832,2090
3947,1819,2106
3948,1800,2125
3949,1802,2122
3950,1806,2095
3951,1832,2063
3952,1834,2029
3953,1834,2013
3954,1832,2024
3955,1819,2030
3956,1806,2029
3957,1801,2057
3958,1786,2095
3959,1786,2080
3960,1817,2060
3961,1832,2027
3962,1834,1993
3963,1831,1978
3964,1832,1989
3965,1820,1995
3966,1818,2016
3967,1791,2015
3968,1783,2059
3969,1786,2042
3970,1803,2011
3971,1831,1994
3972,1833,1966
3973,1833,1966
3974,1831,1968
3975,1819,1976
3976,1822,1992
3977,1802,2012
3978,1774,2029
3979,1773,2039
3980,1804,2013
3981,1818,1977
3982,1834,1933
3983,1831,1929
3984,1821,1944
3985,1815,1946
3986,1806,1960
3987,1804,1982
3988,1783,2009
3989,1773,1997
3990,1800,1978
3991,1818,1947
3992,1833,1914
3993,1834,1897
3994,1823,1898
3995,1817,1928
3996,1806,1919
3997,1789,1942
3998,1787,1981
3999,1789,1993
4000,1808,1966
4001,1831,1932
4002,1838,1897
4003,1838,1886
4004,1847,1912
4005,1832,1900
4006,1816,1929
4007,1804,1932
4008,1787,1960
4009,1791,1965
4010,1818,1951
4011,1837,1918
4012,1839,1865
4013,1837,1867
4014,1835,1881
4015,1824,1886
4016,1822,1897
4017,1818,1902
4018,1801,1936
4019,1800,1946
4020,1820,1916
4021,1833,1887
4022,1839,1851
4023,1850,1848
4024,1852,1851
4025,1835,1869
4026,1833,1888
4027,1818,1900
4028,1817,1962
4029,1832,1977
4030,1837,1918
4031,1835,1816
4032,1831,1770
4033,1831,1752
4034,1816,1724
4035,1791,1736
4036,1786,1720
4037,1757,1689
4038,1726,1688
4039,1721,1655
4040,1725,1597
4041,1741,1531
4042,1753,1453
4043,1753,1420
4044,1740,1371
4045,1722,1340
4046,1708,1323
4047,1688,1310
4048,1646,1319
4049,1631,1276
4050,1645,1177
4051,1657,1118
4052,1661,1064
4053,1656,1021
4054,1642,990
4055,1624,966
4056,1612,952
4057,1597,939
4058,1578,936
4059,1577,906
4060,1583,872
4061,1621,793
4062,1626,728
4063,1626,701
4064,1629,683
4065,1628,682
4066,1623,672
4067,1609,664
4068,1594,680
4069,1592,681
4070,1608,639
4071,1627,585
4072,1644,550
4073,1641,525
4074,1630,538
4075,1613,527
4076,1613,525
4077,1614,537
4078,1596,586
4079,1607,602
4080,1616,587
4081,1630,574
4082,1658,551
4083,1656,553
4084,1661,583
4085,1659,619
4086,1656,639
4087,1639,681
4088,1623,718
4089,1627,744
4090,1642,733
4091,1672,717
4092,1690,712
4093,1689,714
4094,1687,730
4095,1688,764
4096,1680,793
4097,1662,812
4098,1657,871
4099,1657,891
4100,1676,891
4101,1696,874
4102,1710,843
4103,1721,854
4104,1725,874
4105,1735,911
4106,1722,951
4107,1711,958
4108,1693,1006
4109,1694,1023
4110,1707,1018
4111,1736,991
4112,1753,972
4113,1756,972
4114,1752,1002
4115,1751,1023
4116,1741,1053
4117,1741,1080
4118,1723,1117
4119,1724,1136
4120,1739,1131
4121,1769,1111
4122,1789,1086
4123,1787,1102
4124,1775,1103
4125,1770,1144
4126,1757,1164
4127,1754,1180
4128,1739,1223
4129,1752,1247
4130,1768,1241
4131,1789,1211
4132,1815,1178
4133,1815,1177
4134,1816,1196
4135,1801,1230
4136,1789,1243
4137,1774,1260
4138,1757,1307
4139,1757,1323
4140,1771,1320
4141,1801,1293
4142,1818,1277
4143,1816,1278
4144,1802,1306
4145,1801,1325
4146,1784,1340
4147,1768,1387
4148,1770,1401
4149,1787,1399
4150,1816,1370
4151,1818,1326
4152,1807,1321
4153,1806,1337
4154,1800,1354
4155,1789,1372
4156,1774,1400
4157,1753,1433
4158,1753,1437
4159,1768,1433
4160,1798,1416
4161,1816,1389
4162,1805,1399
4163,1803,1389
4164,1800,1407
4165,1789,1435
4166,1774,1463
4167,1756,1498
4168,1755,1500
4169,1771,1487
4170,1800,1465
4171,1806,1438
4172,1805,1432
4173,1805,1448
4174,1790,1468
4175,1791,1487
4176,1786,1502
4177,1767,1546
4178,1759,1563
4179,1775,1550
4180,1802,1516
4181,1815,1486
4182,1816,1480
4183,1805,1496
4184,1805,1527
4185,1801,1533
4186,1791,1549
4187,1768,1597
4188,1769,1599
4189,1773,1596
4190,1804,1576
4191,1818,1544
4192,1820,1546
4193,1815,1550
4194,1807,1563
4195,1790,1581
4196,1791,1580
4197,1770,1612
4198,1775,1628
4199,1789,1624
4200,1803,1581
4201,1816,1546
4202,1816,1545
4203,1821,1565
4204,1805,1583
4205,1804,1596
4206,1788,1608
4207,1773,1656
4208,1774,1659
4209,1790,1648
4210,1803,1614
4211,1817,1576
4212,1819,1576
4213,1819,1595
4214,1804,1610
4215,1801,1624
4216,1791,1631
4217,1775,1678
4218,1776,1693
4219,1801,1677
4220,1818,1641
4221,1832,1614
4222,1833,1607
4223,1834,1611
4224,1817,1626
4225,1806,1629
4226,1788,1644
4227,1773,1690
4228,1774,1710
4229,1784,1688
4230,1806,1647
4231,1817,1609
4232,1822,1624
4233,1822,1614
4234,1807,1629
4235,1800,1656
4236,1787,1674
4237,1783,1708
4238,1772,1710
4239,1788,1693
4240,1805,1658
4241,1817,1626
4242,1819,1628
4243,1818,1643
4244,1818,1657
4245,1814,1676
4246,1791,1677
4247,1773,1711
4248,1772,1741
4249,1775,1721
4250,1802,1678
4251,1816,1645
4252,1819,1646
4253,1815,1646
4254,1805,1672
4255,1804,1676
4256,1787,1691
4257,1767,1737
4258,1768,1744
4259,1773,1735
4260,1801,1703
4261,1804,1661
4262,1805,1655
4263,1814,1675
4264,1791,1679
4265,1790,1689
4266,1773,1693
4267,1758,1737
4268,1757,1754
4269,1772,1737
4270,1788,1691
4271,1801,1656
4272,1800,1644
4273,1791,1647
4274,1801,1690
4275,1799,1720
4276,1771,1750
4277,1737,1802
4278,1738,1815
4279,1742,1801
4280,1754,1788
4281,1756,1751
4282,1768,1740
4283,1759,1769
4284,1755,1784
4285,1741,1799
4286,1724,1802
4287,1711,1837
4288,1706,1848
4289,1734,1839
4290,1759,1799
4291,1772,1757
4292,1773,1743
4293,1773,1756
4294,1757,1787
4295,1755,1791
4296,1743,1788
4297,1725,1831
4298,1721,1836
4299,1723,1824
4300,1757,1790
4301,1772,1756
4302,1771,1755
4303,1769,1753
4304,1759,1768
4305,1755,1785
4306,1752,1790
4307,1723,1821
4308,1724,1836
4309,1740,1831
4310,1760,1804
4311,1782,1756
4312,1774,1740
4313,1784,1752
4314,1773,1769
4315,1770,1787
4316,1752,1791
4317,1735,1822
4318,1737,1823
4319,1752,1800
4320,1769,1770
4321,1770,1739
4322,1769,1736
4323,1771,1740
4324,1758,1758
4325,1758,1784
4326,1754,1774
4327,1739,1833
4328,1736,1833
4329,1737,1805
4330,1767,1774
4331,1785,1753
4332,1786,1738
4333,1786,1757
4334,1774,1770
4335,1770,1785
4336,1758,1801
4337,1751,1824
4338,1753,1840
4339,1758,1822
4340,1784,1790
4341,1805,1756
4342,1817,1753
4343,1807,1758
4344,1803,1768
4345,1800,1771
4346,1785,1774
4347,1768,1820
4348,1759,1836
4349,1785,1803
4350,1817,1770
4351,1830,1739
4352,1835,1720
4353,1837,1712
4354,1840,1736
4355,1847,1788
4356,1835,1835
4357,1808,1886
4358,1800,1917
4359,1819,1919
4360,1834,1902
4361,1863,1903
4362,1852,1917
4363,1849,1947
4364,1831,2008
4365,1822,2088
4366,1817,2112
4367,1789,2172
4368,1788,2218
4369,1805,2250
4370,1818,2263
4371,1819,2240
4372,1816,2281
4373,1808,2300
4374,1803,2362
4375,1788,2412
4376,1771,2441
4377,1738,2488
4378,1742,2521
4379,1759,2540
4380,1771,2542
4381,1784,2522
4382,1775,2522
4383,1768,2527
4384,1768,2601
4385,1753,2636
4386,1740,2655
4387,1719,2683
4388,1723,2720
4389,1734,2714
4390,1742,2696
4391,1756,2672
4392,1782,2670
4393,1783,2696
4394,1757,2711
4395,1754,2733
4396,1742,2749
4397,1736,2795
4398,1741,2822
4399,1757,2807
4400,1784,2781
4401,1789,2760
4402,1803,2751
4403,1806,2776
4404,1806,2781
4405,1807,2791
4406,1800,2795
4407,1784,2855
4408,1788,2841
4409,1815,2812
4410,1832,2778
4411,1837,2745
4412,1836,2731
4413,1838,2733
4414,1848,2736
4415,1836,2746
4416,1822,2750
4417,1806,2782
4418,1808,2793
4419,1835,2760
4420,1864,2731
4421,1879,2700
4422,1852,2684
4423,1865,2671
4424,1864,2683
4425,1867,2713
4426,1862,2701
4427,1839,2734
4428,1836,2744
4429,1852,2714
4430,1870,2680
4431,1886,2649
4432,1883,2619
4433,1882,2635
4434,1884,2631
4435,1885,2624
4436,1881,2654
4437,1854,2655
4438,1854,2680
4439,1867,2623
4440,1887,2589
4441,1901,2543
4442,1902,2520
4443,1901,2536
4444,1898,2537
4445,1886,2519
4446,1896,2519
4447,1868,2558
4448,1870,2552
4449,1880,2537
4450,1901,2489
4451,1913,2442
4452,1911,2425
4453,1914,2426
4454,1897,2423
4455,1882,2411
4456,1868,2411
4457,1848,2446
4458,1839,2455
4459,1851,2430
4460,1871,2394
4461,1894,2348
4462,1888,2318
4463,1888,2319
4464,1884,2334
4465,1880,2315
4466,1852,2315
4467,1847,2351
4468,1850,2349
4469,1863,2329
4470,1882,2286
4471,1900,2255
4472,1898,2237
4473,1896,2232
4474,1896,2250
4475,1882,2253
4476,1880,2252
4477,1849,2284
4478,1851,2296
4479,1866,2267
4480,1887,2222
4481,1900,2189
4482,1888,2174
4483,1886,2182
4484,1881,2188
4485,1868,2186
4486,1865,2185
4487,1850,2221
4488,1834,2222
4489,1850,2216
4490,1871,2185
4491,1881,2127
4492,1884,2119
4493,1879,2109
4494,1869,2120
4495,1854,2142
4496,1853,2141
4497,1833,2173
4498,1833,2183
4499,1847,2158
4500,1866,2126
4501,1882,2092
4502,1871,2078
4503,1864,2062
4504,1864,2091
4505,1854,2106
4506,1850,2103
4507,1834,2124
4508,1822,2136
4509,1835,2119
4510,1864,2064
4511,1871,2027
4512,1869,2015
4513,1864,2024
4514,1851,2040
4515,1852,2046
4516,1837,2056
4517,1804,2088
4518,1806,2104
4519,1823,2078
4520,1850,2029
4521,1869,1998
4522,1864,1980
4523,1866,1993
4524,1851,2009
4525,1850,2009
4526,1835,1999
4527,1822,2047
4528,1816,2056
4529,1823,2027
4530,1852,1999
4531,1865,1965
4532,1864,1946
4533,1864,1961
4534,1855,1979
4535,1849,1979
4536,1839,1981
4537,1820,2013
4538,1818,2026
4539,1836,1998
4540,1850,1967
4541,1867,1948
4542,1867,1929
4543,1854,1933
4544,1851,1944
4545,1849,1958
4546,1840,1963
4547,1821,1997
4548,1817,2007
4549,1832,1998
4550,1853,1960
4551,1870,1928
4552,1880,1904
4553,1866,1903
4554,1851,1918
4555,1850,1933
4556,1847,1947
4557,1818,1981
4558,1806,2012
4559,1818,1991
4560,1849,1976
4561,1883,1961
4562,1886,1928
4563,1864,1854
4564,1837,1834
4565,1822,1848
4566,1817,1832
4567,1773,1821
4568,1768,1820
4569,1758,1760
4570,1773,1695
4571,1787,1641
4572,1786,1595
4573,1776,1564
4574,1758,1513
4575,1736,1512
4576,1705,1470
4577,1672,1448
4578,1673,1435
4579,1672,1401
4580,1674,1325
4581,1689,1242
4582,1678,1197
4583,1674,1164
4584,1673,1152
4585,1660,1102
4586,1646,1086
4587,1611,1097
4588,1608,1078
4589,1609,1035
4590,1625,953
4591,1638,894
4592,1627,857
4593,1610,828
4594,1608,840
4595,1613,808
4596,1607,794
4597,1576,807
4598,1580,826
4599,1580,766
4600,1624,714
4601,1641,667
4602,1627,638
4603,1623,637
4604,1613,633
4605,1600,623
4606,1600,615
4607,1582,664
4608,1583,682
4609,1598,679
4610,1625,648
4611,1647,619
4612,1658,621
4613,1657,648
4614,1661,682
4615,1659,718
4616,1659,734
4617,1644,777
4618,1641,811
4619,1656,810
4620,1677,807
4621,1688,775
4622,1705,778
4623,1706,794
4624,1708,828
4625,1707,860
4626,1703,878
4627,1688,939
4628,1692,969
4629,1706,957
4630,1724,937
4631,1752,921
4632,1753,926
4633,1754,939
4634,1752,968
4635,1742,988
4636,1738,1007
4637,1710,1051
4638,1709,1099
4639,1711,1084
4640,1741,1063
4641,1768,1034
4642,1770,1038
4643,1770,1071
4644,1768,1099
4645,1753,1117
4646,1752,1132
4647,1726,1167
4648,1722,1197
4649,1737,1192
4650,1770,1182
4651,1787,1159
4652,1789,1136
4653,1788,1162
4654,1776,1182
4655,1769,1195
4656,1757,1212
4657,1739,1260
4658,1735,1278
4659,1742,1262
4660,1769,1229
4661,1785,1240
4662,1773,1224
4663,1772,1242
4664,1770,1256
4665,1770,1271
4666,1760,1292
4667,1741,1327
4668,1742,1358
4669,1743,1352
4670,1774,1327
4671,1790,1307
4672,1790,1294
4673,1789,1320
4674,1784,1356
4675,1772,1373
4676,1771,1385
4677,1752,1419
4678,1752,1448
4679,1754,1436
4680,1772,1402
4681,1790,1370
4682,1787,1353
4683,1791,1372
4684,1775,1400
4685,1775,1421
4686,1770,1431
4687,1755,1468
4688,1744,1497
4689,1757,1485
4690,1774,1468
4691,1803,1434
4692,1804,1421
4693,1800,1433
4694,1787,1454
4695,1784,1472
4696,1785,1483
4697,1768,1514
4698,1767,1547
4699,1769,1531
4700,1789,1500
4701,1804,1481
4702,1801,1465
4703,1799,1480
4704,1790,1497
4705,1787,1528
4706,1773,1519
4707,1754,1563
4708,1755,1595
4709,1768,1583
4710,1786,1560
4711,1804,1517
4712,1802,1516
4713,1803,1515
4714,1800,1544
4715,1789,1548
4716,1787,1562
4717,1760,1610
4718,1758,1640
4719,1769,1613
4720,1774,1593
4721,1805,1566
4722,1806,1562
4723,1804,1564
4724,1802,1592
4725,1791,1609
4726,1783,1612
4727,1760,1644
4728,1760,1671
4729,1774,1658
4730,1801,1642
4731,1804,1594
4732,1804,1582
4733,1803,1592
4734,1800,1597
4735,1787,1624
4736,1784,1632
4737,1758,1673
4738,1755,1688
4739,1759,1674
4740,1787,1645
4741,1803,1613
4742,1804,1596
4743,1805,1615
4744,1802,1627
4745,1790,1628
4746,1787,1644
4747,1757,1677
4748,1757,1706
4749,1772,1694
4750,1790,1672
4751,1819,1640
4752,1820,1624
4753,1817,1614
4754,1806,1641
4755,1792,1660
4756,1791,1672
4757,1773,1692
4758,1773,1724
4759,1783,1708
4760,1802,1674
4761,1819,1646
4762,1818,1630
4763,1818,1639
4764,1806,1629
4765,1788,1644
4766,1768,1639
4767,1755,1661
4768,1739,1660
4769,1737,1647
4770,1757,1628
4771,1772,1576
4772,1759,1534
4773,1768,1533
4774,1757,1547
4775,1742,1580
4776,1752,1582
4777,1726,1614
4778,1722,1630
4779,1722,1625
4780,1744,1608
4781,1758,1564
4782,1757,1559
4783,1757,1561
4784,1753,1582
4785,1739,1607
4786,1739,1610
4787,1719,1641
4788,1722,1672
4789,1737,1655
4790,1758,1630
4791,1783,1596
4792,1784,1593
4793,1784,1597
4794,1774,1625
4795,1760,1640
4796,1755,1639
4797,1736,1659
4798,1726,1694
4799,1737,1678
4800,1753,1660
4801,1760,1624
4802,1771,1623
4803,1772,1625
4804,1769,1642
4805,1768,1657
4806,1756,1662
4807,1737,1696
4808,1726,1720
4809,1741,1707
4810,1770,1674
4811,1786,1645
4812,1775,1640
4813,1784,1630
4814,1774,1656
4815,1770,1663
4816,1757,1673
4817,1736,1710
4818,1726,1727
4819,1738,1724
4820,1757,1688
4821,1774,1646
4822,1788,1630
4823,1784,1642
4824,1774,1647
4825,1773,1673
4826,1774,1673
4827,1741,1705
4828,1740,1736
4829,1754,1719
4830,1772,1678
4831,1786,1647
4832,1790,1643
4833,1789,1643
4834,1774,1658
4835,1768,1672
4836,1757,1690
4837,1739,1711
4838,1727,1726
4839,1742,1723
4840,1771,1694
4841,1789,1678
4842,1788,1671
4843,1792,1660
4844,1775,1677
4845,1770,1689
4846,1759,1704
4847,1753,1741
4848,1739,1757
4849,1752,1752
4850,1760,1722
4851,1775,1691
4852,1786,1678
4853,1786,1675
4854,1782,1692
4855,1768,1709
4856,1769,1710
4857,1756,1754
4858,1756,1756
4859,1766,1756
4860,1784,1723
4861,1803,1703
4862,1801,1687
4863,1802,1674
4864,1791,1695
4865,1799,1722
4866,1787,1722
4867,1755,1755
4868,1758,1770
4869,1758,1770
4870,1784,1752
4871,1803,1718
4872,1805,1708
4873,1804,1722
4874,1816,1739
4875,1802,1740
4876,1791,1756
4877,1769,1773
4878,1765,1800
4879,1768,1791
4880,1800,1786
4881,1806,1741
4882,1820,1738
4883,1806,1736
4884,1805,1752
4885,1799,1757
4886,1789,1758
4887,1772,1785
4888,1784,1806
4889,1790,1801
4890,1820,1805
4891,1853,1807
4892,1851,1790
4893,1835,1816
4894,1835,1867
4895,1850,1897
4896,1848,1916
4897,1835,1982
4898,1833,2027
4899,1850,2032
4900,1883,2046
4901,1886,2042
4902,1896,2063
4903,1884,2106
4904,1886,2167
4905,1898,2175
4906,1897,2204
4907,1880,2266
4908,1872,2317
4909,1866,2346
4910,1880,2367
4911,1885,2346
4912,1900,2364
4913,1886,2382
4914,1896,2430
4915,1870,2459
4916,1852,2490
4917,1833,2543
4918,1833,2588
4919,1832,2620
4920,1837,2618
4921,1870,2590
4922,1866,2616
4923,1849,2617
4924,1854,2651
4925,1849,2662
4926,1850,2696
4927,1820,2730
4928,1823,2776
4929,1834,2793
4930,1848,2766
4931,1869,2744
4932,1888,2746
4933,1885,2735
4934,1882,2751
4935,1896,2765
4936,1881,2777
4937,1867,2827
4938,1846,2844
4939,1854,2846
4940,1884,2824
4941,1919,2779
4942,1935,2765
4943,1917,2776
4944,1917,2781
4945,1932,2794
4946,1934,2797
4947,1903,2844
4948,1901,2846
4949,1932,2823
4950,1962,2795
4951,1998,2765
4952,1981,2734
4953,1976,2749
4954,1992,2759
4955,1997,2763
4956,1992,2764
4957,1963,2795
4958,1978,2793
4959,1991,2764
4960,2013,2747
4961,2026,2729
4962,2008,2684
4963,2009,2680
4964,2025,2685
4965,2029,2684
4966,2016,2680
4967,1999,2700
4968,1996,2700
4969,1998,2686
4970,2026,2663
4971,2030,2603
4972,2028,2575
4973,2040,2571
4974,2030,2575
4975,2025,2568
4976,2000,2554
4977,1993,2573
4978,1979,2585
4979,1981,2568
4980,2000,2537
4981,2026,2495
4982,2024,2462
4983,2024,2458
4984,2012,2461
4985,2009,2478
4986,1995,2463
4987,1962,2475
4988,1951,2488
4989,1963,2476
4990,1977,2441
4991,1992,2396
4992,1990,2367
4993,1981,2351
4994,1983,2365
4995,1980,2364
4996,1967,2360
4997,1946,2382
4998,1946,2399
4999,1944,2376
5000,1966,2335
5001,1993,2300
5002,1992,2280
5003,1982,2282
5004,1978,2270
5005,1965,2282
5006,1950,2285
5007,1927,2312
5008,1900,2314
5009,1915,2303
5010,1934,2268
